Smoothed Frequency Response
Resolution = 1/6 octave
Numpoints = 720
SamplingRate = 44100 Hz
Frequency(Hz)   Magnitude(dB)
   11.082	 -34.6873
   11.199	 -34.6482
   11.318	 -34.6084
   11.438	 -34.5670
   11.559	 -34.5206
   11.681	 -34.4644
   11.804	 -34.3979
   11.929	 -34.3169
   12.056	 -34.2354
   12.183	 -34.1533
   12.312	 -34.0707
   12.442	 -33.9876
   12.574	 -33.9040
   12.707	 -33.8198
   12.841	 -33.7352
   12.977	 -33.6500
   13.114	 -33.5644
   13.253	 -33.4784
   13.393	 -33.3919
   13.535	 -33.3050
   13.678	 -33.2177
   13.823	 -33.1300
   13.969	 -33.0419
   14.117	 -32.9534
   14.266	 -32.8647
   14.417	 -32.7756
   14.570	 -32.6863
   14.724	 -32.5966
   14.880	 -32.5068
   15.037	 -32.4168
   15.196	 -32.3265
   15.357	 -32.2361
   15.520	 -32.1457
   15.684	 -32.0551
   15.850	 -31.9645
   16.017	 -31.8738
   16.187	 -31.7832
   16.358	 -31.6927
   16.531	 -31.6022
   16.706	 -31.5119
   16.883	 -31.4218
   17.061	 -31.3320
   17.242	 -31.2424
   17.424	 -31.1532
   17.609	 -31.0644
   17.795	 -30.9760
   17.983	 -30.8882
   18.174	 -30.8009
   18.366	 -30.7143
   18.560	 -30.6284
   18.756	 -30.5433
   18.955	 -30.4590
   19.155	 -30.3756
   19.358	 -30.2932
   19.563	 -30.2119
   19.770	 -30.1318
   19.979	 -30.0530
   20.190	 -29.9755
   20.404	 -29.8994
   20.620	 -29.8248
   20.838	 -29.7515
   21.058	 -29.6795
   21.281	 -29.6087
   21.506	 -29.5389
   21.734	 -29.4701
   21.964	 -29.4020
   22.196	 -29.3345
   22.431	 -29.2675
   22.668	 -29.2009
   22.908	 -29.1346
   23.151	 -29.0684
   23.396	 -29.0024
   23.643	 -28.9365
   23.893	 -28.8709
   24.146	 -28.8055
   24.401	 -28.7404
   24.660	 -28.6755
   24.920	 -28.6110
   25.184	 -28.5467
   25.451	 -28.4828
   25.720	 -28.4193
   25.992	 -28.3562
   26.267	 -28.2935
   26.545	 -28.2312
   26.826	 -28.1695
   27.109	 -28.1082
   27.396	 -28.0475
   27.686	 -27.9874
   27.979	 -27.9278
   28.275	 -27.8689
   28.574	 -27.8107
   28.876	 -27.7532
   29.182	 -27.6964
   29.491	 -27.6404
   29.803	 -27.5852
   30.118	 -27.5309
   30.437	 -27.4773
   30.759	 -27.4242
   31.084	 -27.3713
   31.413	 -27.3184
   31.745	 -27.2653
   32.081	 -27.2121
   32.421	 -27.1587
   32.764	 -27.1052
   33.110	 -27.0515
   33.460	 -26.9977
   33.814	 -26.9439
   34.172	 -26.8902
   34.534	 -26.8369
   34.899	 -26.7843
   35.268	 -26.7327
   35.641	 -26.6820
   36.019	 -26.6324
   36.400	 -26.5839
   36.785	 -26.5365
   37.174	 -26.4902
   37.567	 -26.4452
   37.965	 -26.4014
   38.366	 -26.3589
   38.772	 -26.3178
   39.182	 -26.2781
   39.597	 -26.2399
   40.016	 -26.2032
   40.439	 -26.1681
   40.867	 -26.1355
   41.299	 -26.1060
   41.736	 -26.0804
   42.178	 -26.0591
   42.624	 -26.0421
   43.075	 -26.0295
   43.531	 -26.0212
   43.991	 -26.0171
   44.457	 -26.0173
   44.927	 -26.0216
   45.402	 -26.0295
   45.883	 -26.0403
   46.368	 -26.0532
   46.859	 -26.0671
   47.354	 -26.0819
   47.855	 -26.0974
   48.362	 -26.1133
   48.873	 -26.1293
   49.390	 -26.1452
   49.913	 -26.1607
   50.441	 -26.1755
   50.975	 -26.1893
   51.514	 -26.2019
   52.059	 -26.2134
   52.610	 -26.2235
   53.166	 -26.2321
   53.729	 -26.2394
   54.297	 -26.2451
   54.872	 -26.2495
   55.452	 -26.2526
   56.039	 -26.2546
   56.632	 -26.2557
   57.231	 -26.2561
   57.837	 -26.2558
   58.448	 -26.2551
   59.067	 -26.2541
   59.692	 -26.2531
   60.323	 -26.2524
   60.961	 -26.2523
   61.606	 -26.2531
   62.258	 -26.2552
   62.917	 -26.2587
   63.582	 -26.2638
   64.255	 -26.2703
   64.935	 -26.2784
   65.622	 -26.2879
   66.316	 -26.2988
   67.018	 -26.3109
   67.727	 -26.3240
   68.443	 -26.3379
   69.167	 -26.3524
   69.899	 -26.3671
   70.639	 -26.3820
   71.386	 -26.3969
   72.141	 -26.4120
   72.905	 -26.4271
   73.676	 -26.4423
   74.455	 -26.4576
   75.243	 -26.4728
   76.039	 -26.4881
   76.844	 -26.5035
   77.657	 -26.5188
   78.478	 -26.5342
   79.308	 -26.5496
   80.147	 -26.5650
   80.995	 -26.5805
   81.852	 -26.5959
   82.718	 -26.6112
   83.593	 -26.6264
   84.478	 -26.6414
   85.372	 -26.6562
   86.275	 -26.6708
   87.188	 -26.6851
   88.110	 -26.6990
   89.042	 -26.7127
   89.984	 -26.7259
   90.936	 -26.7388
   91.898	 -26.7513
   92.871	 -26.7632
   93.853	 -26.7747
   94.846	 -26.7857
   95.849	 -26.7962
   96.864	 -26.8062
   97.888	 -26.8158
   98.924	 -26.8250
   99.971	 -26.8338
  101.028	 -26.8423
  102.097	 -26.8505
  103.177	 -26.8585
  104.269	 -26.8664
  105.372	 -26.8742
  106.487	 -26.8821
  107.613	 -26.8900
  108.752	 -26.8979
  109.902	 -26.9059
  111.065	 -26.9139
  112.240	 -26.9221
  113.428	 -26.9303
  114.628	 -26.9387
  115.840	 -26.9472
  117.066	 -26.9559
  118.304	 -26.9647
  119.556	 -26.9735
  120.821	 -26.9824
  122.099	 -26.9914
  123.391	 -27.0004
  124.696	 -27.0093
  126.016	 -27.0182
  127.349	 -27.0269
  128.696	 -27.0354
  130.058	 -27.0437
  131.434	 -27.0517
  132.824	 -27.0595
  134.230	 -27.0670
  135.650	 -27.0741
  137.085	 -27.0808
  138.535	 -27.0873
  140.001	 -27.0933
  141.482	 -27.0991
  142.979	 -27.1045
  144.491	 -27.1097
  146.020	 -27.1145
  147.565	 -27.1190
  149.126	 -27.1233
  150.704	 -27.1272
  152.298	 -27.1307
  153.910	 -27.1339
  155.538	 -27.1365
  157.183	 -27.1387
  158.846	 -27.1401
  160.527	 -27.1409
  162.225	 -27.1408
  163.942	 -27.1398
  165.676	 -27.1377
  167.429	 -27.1346
  169.200	 -27.1303
  170.990	 -27.1248
  172.799	 -27.1182
  174.627	 -27.1104
  176.475	 -27.1014
  178.342	 -27.0913
  180.229	 -27.0800
  182.136	 -27.0676
  184.063	 -27.0541
  186.010	 -27.0393
  187.978	 -27.0233
  189.967	 -27.0060
  191.976	 -26.9876
  194.007	 -26.9681
  196.060	 -26.9475
  198.134	 -26.9261
  200.230	 -26.9038
  202.349	 -26.8808
  204.490	 -26.8573
  206.653	 -26.8334
  208.839	 -26.8093
  211.049	 -26.7852
  213.282	 -26.7612
  215.538	 -26.7372
  217.818	 -26.7130
  220.123	 -26.6886
  222.452	 -26.6640
  224.805	 -26.6394
  227.184	 -26.6148
  229.587	 -26.5904
  232.016	 -26.5660
  234.471	 -26.5417
  236.951	 -26.5174
  239.458	 -26.4930
  241.992	 -26.4688
  244.552	 -26.4447
  247.139	 -26.4208
  249.754	 -26.3971
  252.396	 -26.3736
  255.066	 -26.3502
  257.765	 -26.3269
  260.492	 -26.3038
  263.248	 -26.2810
  266.033	 -26.2586
  268.848	 -26.2366
  271.692	 -26.2151
  274.566	 -26.1941
  277.471	 -26.1736
  280.407	 -26.1536
  283.373	 -26.1339
  286.371	 -26.1146
  289.401	 -26.0956
  292.463	 -26.0767
  295.557	 -26.0580
  298.684	 -26.0393
  301.844	 -26.0205
  305.037	 -26.0018
  308.265	 -25.9830
  311.526	 -25.9644
  314.822	 -25.9460
  318.152	 -25.9276
  321.518	 -25.9093
  324.920	 -25.8910
  328.358	 -25.8727
  331.832	 -25.8546
  335.342	 -25.8367
  338.890	 -25.8191
  342.475	 -25.8017
  346.099	 -25.7844
  349.760	 -25.7673
  353.461	 -25.7504
  357.200	 -25.7337
  360.979	 -25.7173
  364.798	 -25.7013
  368.658	 -25.6858
  372.558	 -25.6712
  376.500	 -25.6574
  380.483	 -25.6446
  384.508	 -25.6328
  388.576	 -25.6228
  392.687	 -25.6150
  396.842	 -25.6102
  401.040	 -25.6084
  405.283	 -25.6096
  409.571	 -25.6139
  413.904	 -25.6213
  418.283	 -25.6319
  422.708	 -25.6453
  427.181	 -25.6613
  431.700	 -25.6792
  436.267	 -25.6981
  440.883	 -25.7173
  445.547	 -25.7357
  450.261	 -25.7529
  455.025	 -25.7679
  459.839	 -25.7798
  464.704	 -25.7876
  469.620	 -25.7905
  474.589	 -25.7877
  479.610	 -25.7787
  484.684	 -25.7628
  489.811	 -25.7396
  494.994	 -25.7086
  500.230	 -25.6699
  505.523	 -25.6240
  510.871	 -25.5720
  516.276	 -25.5150
  521.738	 -25.4528
  527.258	 -25.3854
  532.836	 -25.3136
  538.473	 -25.2386
  544.170	 -25.1621
  549.927	 -25.0846
  555.745	 -25.0061
  561.625	 -24.9268
  567.567	 -24.8465
  573.572	 -24.7654
  579.640	 -24.6841
  585.772	 -24.6030
  591.969	 -24.5225
  598.232	 -24.4426
  604.561	 -24.3625
  610.958	 -24.2820
  617.421	 -24.2016
  623.953	 -24.1217
  630.555	 -24.0427
  637.226	 -23.9640
  643.967	 -23.8856
  650.780	 -23.8077
  657.666	 -23.7313
  664.623	 -23.6560
  671.655	 -23.5824
  678.761	 -23.5106
  685.942	 -23.4383
  693.199	 -23.3652
  700.533	 -23.2898
  707.944	 -23.2103
  715.434	 -23.1289
  723.003	 -23.0463
  730.652	 -22.9644
  738.383	 -22.8848
  746.194	 -22.8053
  754.089	 -22.7282
  762.067	 -22.6549
  770.129	 -22.5874
  778.277	 -22.5300
  786.511	 -22.4862
  794.832	 -22.4597
  803.241	 -22.4538
  811.739	 -22.4703
  820.327	 -22.5069
  829.006	 -22.5639
  837.777	 -22.6398
  846.640	 -22.7340
  855.597	 -22.8479
  864.649	 -22.9800
  873.797	 -23.1317
  883.042	 -23.3016
  892.384	 -23.4849
  901.825	 -23.6774
  911.366	 -23.8726
  921.008	 -24.0677
  930.752	 -24.2595
  940.599	 -24.4421
  950.551	 -24.6090
  960.607	 -24.7539
  970.770	 -24.8667
  981.041	 -24.9435
  991.420	 -24.9805
 1001.909	 -24.9790
 1012.509	 -24.9460
 1023.221	 -24.8880
 1034.046	 -24.8137
 1044.986	 -24.7334
 1056.042	 -24.6524
 1067.214	 -24.5751
 1078.505	 -24.5025
 1089.915	 -24.4352
 1101.446	 -24.3725
 1113.099	 -24.3184
 1124.875	 -24.2695
 1136.776	 -24.2213
 1148.803	 -24.1671
 1160.957	 -24.1002
 1173.240	 -24.0181
 1185.652	 -23.9261
 1198.196	 -23.8262
 1210.873	 -23.7220
 1223.683	 -23.6149
 1236.630	 -23.5087
 1249.713	 -23.4090
 1262.934	 -23.3169
 1276.296	 -23.2321
 1289.799	 -23.1600
 1303.444	 -23.1057
 1317.234	 -23.0638
 1331.170	 -23.0329
 1345.254	 -23.0108
 1359.486	 -22.9999
 1373.869	 -23.0073
 1388.404	 -23.0329
 1403.093	 -23.0764
 1417.938	 -23.1375
 1432.939	 -23.2143
 1448.099	 -23.3033
 1463.420	 -23.3944
 1478.902	 -23.4780
 1494.548	 -23.5432
 1510.360	 -23.5939
 1526.339	 -23.6146
 1542.488	 -23.6092
 1558.807	 -23.5708
 1575.299	 -23.5009
 1591.965	 -23.4065
 1608.807	 -23.2941
 1625.828	 -23.1736
 1643.029	 -23.0567
 1660.412	 -22.9449
 1677.978	 -22.8427
 1695.731	 -22.7519
 1713.671	 -22.6682
 1731.801	 -22.5910
 1750.123	 -22.5174
 1768.639	 -22.4534
 1787.351	 -22.3944
 1806.260	 -22.3430
 1825.370	 -22.2960
 1844.682	 -22.2540
 1864.198	 -22.2259
 1883.921	 -22.2104
 1903.852	 -22.2201
 1923.995	 -22.2556
 1944.350	 -22.3222
 1964.920	 -22.4336
 1985.709	 -22.5769
 2006.717	 -22.7441
 2027.948	 -22.9094
 2049.403	 -23.0716
 2071.085	 -23.2124
 2092.996	 -23.3389
 2115.139	 -23.4454
 2137.517	 -23.5173
 2160.131	 -23.5591
 2182.985	 -23.5543
 2206.080	 -23.5126
 2229.420	 -23.4479
 2253.007	 -23.3761
 2276.843	 -23.3169
 2300.931	 -23.2726
 2325.274	 -23.2377
 2349.875	 -23.2109
 2374.736	 -23.1963
 2399.860	 -23.1820
 2425.250	 -23.1668
 2450.908	 -23.1481
 2476.838	 -23.1338
 2503.042	 -23.1481
 2529.524	 -23.2116
 2556.286	 -23.3177
 2583.330	 -23.4554
 2610.661	 -23.6000
 2638.281	 -23.7321
 2666.194	 -23.8503
 2694.401	 -23.9594
 2722.907	 -24.0654
 2751.715	 -24.1649
 2780.827	 -24.2396
 2810.247	 -24.2714
 2839.979	 -24.2496
 2870.025	 -24.1955
 2900.389	 -24.1294
 2931.074	 -24.0856
 2962.084	 -24.0562
 2993.422	 -24.0360
 3025.092	 -24.0293
 3057.097	 -24.0510
 3089.440	 -24.1158
 3122.125	 -24.2153
 3155.156	 -24.3215
 3188.537	 -24.4110
 3222.271	 -24.4747
 3256.362	 -24.5149
 3290.813	 -24.5360
 3325.629	 -24.5428
 3360.813	 -24.5304
 3396.369	 -24.4897
 3432.302	 -24.3951
 3468.615	 -24.2313
 3505.312	 -24.0111
 3542.397	 -23.7652
 3579.875	 -23.5262
 3617.749	 -23.3221
 3656.023	 -23.1844
 3694.703	 -23.0888
 3733.792	 -22.9997
 3773.294	 -22.8806
 3813.215	 -22.7142
 3853.557	 -22.5038
 3894.327	 -22.2568
 3935.528	 -21.9659
 3977.165	 -21.5840
 4019.242	 -21.0446
 4061.764	 -20.3182
 4104.737	 -19.4095
 4148.164	 -18.4180
 4192.050	 -17.4755
 4236.400	 -16.5621
 4281.221	 -15.6347
 4326.515	 -14.7593
 4372.288	 -13.9996
 4418.545	 -13.4087
 4465.292	 -12.9992
 4512.534	 -12.7463
 4560.275	 -12.6199
 4608.521	 -12.5997
 4657.278	 -12.6700
 4706.551	 -12.8335
 4756.345	 -13.1068
 4806.666	 -13.5019
 4857.519	 -14.0294
 4908.910	 -14.6502
 4960.845	 -15.2512
 5013.330	 -15.7731
 5066.369	 -16.2073
 5119.970	 -16.5777
 5174.138	 -16.9219
 5228.878	 -17.2551
 5284.198	 -17.5669
 5340.104	 -17.8759
 5396.601	 -18.2073
 5453.695	 -18.5891
 5511.394	 -19.0274
 5569.703	 -19.5012
 5628.628	 -19.9790
 5688.178	 -20.4463
 5748.357	 -20.8984
 5809.173	 -21.3331
 5870.632	 -21.7389
 5932.742	 -22.1052
 5995.509	 -22.4133
 6058.939	 -22.6629
 6123.041	 -22.8446
 6187.821	 -22.9577
 6253.287	 -22.9947
 6319.445	 -22.9599
 6386.303	 -22.8629
 6453.868	 -22.7119
 6522.148	 -22.5200
 6591.150	 -22.2940
 6660.883	 -22.0434
 6731.353	 -21.7840
 6802.569	 -21.5357
 6874.538	 -21.3156
 6947.269	 -21.1380
 7020.769	 -21.0053
 7095.046	 -20.9084
 7170.110	 -20.8468
 7245.968	 -20.8438
 7322.628	 -20.9282
 7400.100	 -21.1180
 7478.390	 -21.4110
 7557.510	 -21.7985
 7637.466	 -22.2769
 7718.268	 -22.8372
 7799.925	 -23.4692
 7882.446	 -24.1756
 7965.840	 -24.9505
 8050.116	 -25.7699
 8135.284	 -26.5651
 8221.354	 -27.2116
 8308.333	 -27.6337
 8396.232	 -27.8980
 8485.063	 -28.1010
 8574.832	 -28.2890
 8665.551	 -28.4645
 8757.230	 -28.6290
 8849.879	 -28.8060
 8943.509	 -28.9848
 9038.128	 -29.0987
 9133.749	 -29.0484
 9230.382	 -28.7244
 9328.036	 -28.1103
 9426.725	 -27.3015
 9526.456	 -26.4543
 9627.243	 -25.6759
 9729.097	 -25.0277
 9832.028	 -24.5204
 9936.048	 -24.1473
10041.169	 -23.8947
10147.401	 -23.7557
10254.758	 -23.7309
10363.250	 -23.8268
10472.891	 -24.0514
10583.690	 -24.4035
10695.663	 -24.8685
10808.820	 -25.4240
10923.175	 -26.0338
11038.738	 -26.6716
11155.525	 -27.3103
11273.547	 -27.9357
11392.818	 -28.5325
11513.351	 -29.0928
11635.159	 -29.6110
11758.256	 -30.0884
11882.654	 -30.5273
12008.370	 -30.9311
12135.415	 -31.3062
12263.804	 -31.6543
12393.552	 -31.9772
12524.672	 -32.2627
12657.179	 -32.4996
12791.089	 -32.6552
12926.415	 -32.7114
13063.172	 -32.6504
13201.377	 -32.4727
13341.044	 -32.1806
13482.188	 -31.7759
13624.826	 -31.2927
13768.973	 -30.7793
13914.645	 -30.2878
14061.857	 -29.8891
14210.628	 -29.6283
14360.973	 -29.5223
14512.907	 -29.5412
14666.449	 -29.6275
14821.616	 -29.7038
14978.425	 -29.7304
15136.893	 -29.7413
15297.036	 -29.8155
15458.875	 -30.0116
15622.425	 -30.3012
15787.706	 -30.6059
15954.735	 -30.8334
16123.532	 -30.9119
16294.114	 -30.8723
16466.502	 -30.8120
16640.713	 -30.8366
16816.766	 -30.9797
16994.682	 -31.2030
17174.482	 -31.4085
17356.182	 -31.5169
17539.807	 -31.5504
17725.373	 -31.5884
17912.902	 -31.6998
18102.414	 -31.8987
18293.934	 -32.1993
18487.479	 -32.6220
18683.070	 -33.1745
18880.732	 -33.8482
19080.484	 -34.6251
19282.350	 -35.4944
19486.352	 -36.4144
19692.512	 -37.3397
19900.854	 -38.2607
20111.398	 -39.2098
20324.172	 -40.1033
20539.195	 -47.9548
20756.494	 -48.7063
20976.092	 -49.4135
21198.014	 -50.1297
21422.281	 -50.9153
