Smoothed Frequency Response
Resolution = 1/6 octave
Numpoints = 720
SamplingRate = 44100 Hz
Frequency(Hz)   Magnitude(dB)
   11.082	 -33.9369
   11.199	 -33.9087
   11.318	 -33.8801
   11.438	 -33.8503
   11.559	 -33.8169
   11.681	 -33.7764
   11.804	 -33.7285
   11.929	 -33.6699
   12.056	 -33.6110
   12.183	 -33.5517
   12.312	 -33.4920
   12.442	 -33.4320
   12.574	 -33.3716
   12.707	 -33.3107
   12.841	 -33.2495
   12.977	 -33.1880
   13.114	 -33.1260
   13.253	 -33.0637
   13.393	 -33.0010
   13.535	 -32.9379
   13.678	 -32.8744
   13.823	 -32.8106
   13.969	 -32.7464
   14.117	 -32.6818
   14.266	 -32.6167
   14.417	 -32.5514
   14.570	 -32.4856
   14.724	 -32.4195
   14.880	 -32.3530
   15.037	 -32.2860
   15.196	 -32.2188
   15.357	 -32.1511
   15.520	 -32.0830
   15.684	 -32.0146
   15.850	 -31.9458
   16.017	 -31.8765
   16.187	 -31.8069
   16.358	 -31.7370
   16.531	 -31.6666
   16.706	 -31.5958
   16.883	 -31.5247
   17.061	 -31.4531
   17.242	 -31.3812
   17.424	 -31.3089
   17.609	 -31.2362
   17.795	 -31.1631
   17.983	 -31.0896
   18.174	 -31.0157
   18.366	 -30.9414
   18.560	 -30.8667
   18.756	 -30.7916
   18.955	 -30.7161
   19.155	 -30.6402
   19.358	 -30.5639
   19.563	 -30.4872
   19.770	 -30.4101
   19.979	 -30.3326
   20.190	 -30.2546
   20.404	 -30.1762
   20.620	 -30.0975
   20.838	 -30.0183
   21.058	 -29.9388
   21.281	 -29.8591
   21.506	 -29.7791
   21.734	 -29.6988
   21.964	 -29.6185
   22.196	 -29.5380
   22.431	 -29.4576
   22.668	 -29.3771
   22.908	 -29.2967
   23.151	 -29.2163
   23.396	 -29.1361
   23.643	 -29.0561
   23.893	 -28.9762
   24.146	 -28.8965
   24.401	 -28.8170
   24.660	 -28.7377
   24.920	 -28.6587
   25.184	 -28.5800
   25.451	 -28.5016
   25.720	 -28.4236
   25.992	 -28.3459
   26.267	 -28.2686
   26.545	 -28.1918
   26.826	 -28.1154
   27.109	 -28.0395
   27.396	 -27.9642
   27.686	 -27.8894
   27.979	 -27.8152
   28.275	 -27.7416
   28.574	 -27.6687
   28.876	 -27.5966
   29.182	 -27.5251
   29.491	 -27.4544
   29.803	 -27.3846
   30.118	 -27.3156
   30.437	 -27.2479
   30.759	 -27.1824
   31.084	 -27.1199
   31.413	 -27.0610
   31.745	 -27.0059
   32.081	 -26.9546
   32.421	 -26.9071
   32.764	 -26.8633
   33.110	 -26.8232
   33.460	 -26.7866
   33.814	 -26.7535
   34.172	 -26.7232
   34.534	 -26.6950
   34.899	 -26.6682
   35.268	 -26.6422
   35.641	 -26.6170
   36.019	 -26.5928
   36.400	 -26.5694
   36.785	 -26.5470
   37.174	 -26.5257
   37.567	 -26.5053
   37.965	 -26.4860
   38.366	 -26.4678
   38.772	 -26.4508
   39.182	 -26.4349
   39.597	 -26.4203
   40.016	 -26.4070
   40.439	 -26.3949
   40.867	 -26.3843
   41.299	 -26.3751
   41.736	 -26.3674
   42.178	 -26.3611
   42.624	 -26.3563
   43.075	 -26.3527
   43.531	 -26.3505
   43.991	 -26.3494
   44.457	 -26.3493
   44.927	 -26.3502
   45.402	 -26.3519
   45.883	 -26.3543
   46.368	 -26.3571
   46.859	 -26.3603
   47.354	 -26.3638
   47.855	 -26.3675
   48.362	 -26.3714
   48.873	 -26.3753
   49.390	 -26.3791
   49.913	 -26.3827
   50.441	 -26.3861
   50.975	 -26.3891
   51.514	 -26.3917
   52.059	 -26.3940
   52.610	 -26.3958
   53.166	 -26.3971
   53.729	 -26.3978
   54.297	 -26.3981
   54.872	 -26.3978
   55.452	 -26.3971
   56.039	 -26.3959
   56.632	 -26.3943
   57.231	 -26.3924
   57.837	 -26.3902
   58.448	 -26.3877
   59.067	 -26.3851
   59.692	 -26.3825
   60.323	 -26.3799
   60.961	 -26.3778
   61.606	 -26.3762
   62.258	 -26.3754
   62.917	 -26.3756
   63.582	 -26.3769
   64.255	 -26.3793
   64.935	 -26.3828
   65.622	 -26.3875
   66.316	 -26.3931
   67.018	 -26.3998
   67.727	 -26.4074
   68.443	 -26.4156
   69.167	 -26.4243
   69.899	 -26.4332
   70.639	 -26.4422
   71.386	 -26.4512
   72.141	 -26.4602
   72.905	 -26.4693
   73.676	 -26.4782
   74.455	 -26.4871
   75.243	 -26.4960
   76.039	 -26.5048
   76.844	 -26.5135
   77.657	 -26.5222
   78.478	 -26.5308
   79.308	 -26.5393
   80.147	 -26.5478
   80.995	 -26.5563
   81.852	 -26.5647
   82.718	 -26.5731
   83.593	 -26.5814
   84.478	 -26.5897
   85.372	 -26.5978
   86.275	 -26.6059
   87.188	 -26.6139
   88.110	 -26.6217
   89.042	 -26.6294
   89.984	 -26.6370
   90.936	 -26.6445
   91.898	 -26.6517
   92.871	 -26.6586
   93.853	 -26.6651
   94.846	 -26.6712
   95.849	 -26.6769
   96.864	 -26.6822
   97.888	 -26.6872
   98.924	 -26.6918
   99.971	 -26.6961
  101.028	 -26.7002
  102.097	 -26.7041
  103.177	 -26.7079
  104.269	 -26.7117
  105.372	 -26.7156
  106.487	 -26.7196
  107.613	 -26.7238
  108.752	 -26.7282
  109.902	 -26.7328
  111.065	 -26.7375
  112.240	 -26.7425
  113.428	 -26.7477
  114.628	 -26.7532
  115.840	 -26.7590
  117.066	 -26.7652
  118.304	 -26.7717
  119.556	 -26.7786
  120.821	 -26.7857
  122.099	 -26.7930
  123.391	 -26.8004
  124.696	 -26.8079
  126.016	 -26.8154
  127.349	 -26.8228
  128.696	 -26.8300
  130.058	 -26.8369
  131.434	 -26.8436
  132.824	 -26.8500
  134.230	 -26.8561
  135.650	 -26.8619
  137.085	 -26.8675
  138.535	 -26.8728
  140.001	 -26.8779
  141.482	 -26.8827
  142.979	 -26.8873
  144.491	 -26.8916
  146.020	 -26.8955
  147.565	 -26.8990
  149.126	 -26.9020
  150.704	 -26.9045
  152.298	 -26.9065
  153.910	 -26.9079
  155.538	 -26.9086
  157.183	 -26.9086
  158.846	 -26.9079
  160.527	 -26.9065
  162.225	 -26.9042
  163.942	 -26.9011
  165.676	 -26.8971
  167.429	 -26.8923
  169.200	 -26.8867
  170.990	 -26.8802
  172.799	 -26.8729
  174.627	 -26.8647
  176.475	 -26.8557
  178.342	 -26.8459
  180.229	 -26.8353
  182.136	 -26.8240
  184.063	 -26.8119
  186.010	 -26.7990
  187.978	 -26.7854
  189.967	 -26.7710
  191.976	 -26.7559
  194.007	 -26.7402
  196.060	 -26.7239
  198.134	 -26.7071
  200.230	 -26.6899
  202.349	 -26.6723
  204.490	 -26.6545
  206.653	 -26.6365
  208.839	 -26.6185
  211.049	 -26.6004
  213.282	 -26.5826
  215.538	 -26.5649
  217.818	 -26.5476
  220.123	 -26.5306
  222.452	 -26.5140
  224.805	 -26.4978
  227.184	 -26.4821
  229.587	 -26.4667
  232.016	 -26.4518
  234.471	 -26.4373
  236.951	 -26.4235
  239.458	 -26.4103
  241.992	 -26.3979
  244.552	 -26.3862
  247.139	 -26.3753
  249.754	 -26.3650
  252.396	 -26.3556
  255.066	 -26.3470
  257.765	 -26.3392
  260.492	 -26.3322
  263.248	 -26.3259
  266.033	 -26.3200
  268.848	 -26.3143
  271.692	 -26.3088
  274.566	 -26.3035
  277.471	 -26.2983
  280.407	 -26.2932
  283.373	 -26.2881
  286.371	 -26.2829
  289.401	 -26.2772
  292.463	 -26.2710
  295.557	 -26.2642
  298.684	 -26.2573
  301.844	 -26.2505
  305.037	 -26.2438
  308.265	 -26.2369
  311.526	 -26.2294
  314.822	 -26.2210
  318.152	 -26.2117
  321.518	 -26.2016
  324.920	 -26.1907
  328.358	 -26.1794
  331.832	 -26.1676
  335.342	 -26.1549
  338.890	 -26.1414
  342.475	 -26.1270
  346.099	 -26.1124
  349.760	 -26.0981
  353.461	 -26.0846
  357.200	 -26.0722
  360.979	 -26.0608
  364.798	 -26.0507
  368.658	 -26.0418
  372.558	 -26.0342
  376.500	 -26.0279
  380.483	 -26.0233
  384.508	 -26.0202
  388.576	 -26.0189
  392.687	 -26.0193
  396.842	 -26.0217
  401.040	 -26.0262
  405.283	 -26.0332
  409.571	 -26.0429
  413.904	 -26.0554
  418.283	 -26.0708
  422.708	 -26.0889
  427.181	 -26.1096
  431.700	 -26.1322
  436.267	 -26.1560
  440.883	 -26.1803
  445.547	 -26.2042
  450.261	 -26.2269
  455.025	 -26.2473
  459.839	 -26.2642
  464.704	 -26.2767
  469.620	 -26.2835
  474.589	 -26.2841
  479.610	 -26.2775
  484.684	 -26.2633
  489.811	 -26.2414
  494.994	 -26.2118
  500.230	 -26.1745
  505.523	 -26.1299
  510.871	 -26.0784
  516.276	 -26.0207
  521.738	 -25.9573
  527.258	 -25.8893
  532.836	 -25.8175
  538.473	 -25.7426
  544.170	 -25.6646
  549.927	 -25.5843
  555.745	 -25.5026
  561.625	 -25.4206
  567.567	 -25.3394
  573.572	 -25.2587
  579.640	 -25.1780
  585.772	 -25.0965
  591.969	 -25.0138
  598.232	 -24.9304
  604.561	 -24.8474
  610.958	 -24.7656
  617.421	 -24.6850
  623.953	 -24.6052
  630.555	 -24.5252
  637.226	 -24.4446
  643.967	 -24.3646
  650.780	 -24.2857
  657.666	 -24.2082
  664.623	 -24.1326
  671.655	 -24.0586
  678.761	 -23.9862
  685.942	 -23.9144
  693.199	 -23.8433
  700.533	 -23.7729
  707.944	 -23.7034
  715.434	 -23.6354
  723.003	 -23.5691
  730.652	 -23.5058
  738.383	 -23.4475
  746.194	 -23.3963
  754.089	 -23.3526
  762.067	 -23.3167
  770.129	 -23.2897
  778.277	 -23.2725
  786.511	 -23.2675
  794.832	 -23.2750
  803.241	 -23.2970
  811.739	 -23.3355
  820.327	 -23.3906
  829.006	 -23.4636
  837.777	 -23.5517
  846.640	 -23.6536
  855.597	 -23.7683
  864.649	 -23.8945
  873.797	 -24.0305
  883.042	 -24.1755
  892.384	 -24.3295
  901.825	 -24.4897
  911.366	 -24.6543
  921.008	 -24.8157
  930.752	 -24.9681
  940.599	 -25.1076
  950.551	 -25.2293
  960.607	 -25.3323
  970.770	 -25.4125
  981.041	 -25.4652
  991.420	 -25.4886
 1001.909	 -25.4802
 1012.509	 -25.4426
 1023.221	 -25.3798
 1034.046	 -25.3013
 1044.986	 -25.2142
 1056.042	 -25.1248
 1067.214	 -25.0371
 1078.505	 -24.9523
 1089.915	 -24.8734
 1101.446	 -24.7999
 1113.099	 -24.7329
 1124.875	 -24.6726
 1136.776	 -24.6177
 1148.803	 -24.5634
 1160.957	 -24.5053
 1173.240	 -24.4385
 1185.652	 -24.3610
 1198.196	 -24.2737
 1210.873	 -24.1776
 1223.683	 -24.0745
 1236.630	 -23.9720
 1249.713	 -23.8726
 1262.934	 -23.7761
 1276.296	 -23.6802
 1289.799	 -23.5841
 1303.444	 -23.4923
 1317.234	 -23.4108
 1331.170	 -23.3394
 1345.254	 -23.2827
 1359.486	 -23.2426
 1373.869	 -23.2205
 1388.404	 -23.2172
 1403.093	 -23.2330
 1417.938	 -23.2678
 1432.939	 -23.3285
 1448.099	 -23.4155
 1463.420	 -23.5197
 1478.902	 -23.6297
 1494.548	 -23.7364
 1510.360	 -23.8363
 1526.339	 -23.9242
 1542.488	 -23.9926
 1558.807	 -24.0377
 1575.299	 -24.0620
 1591.965	 -24.0599
 1608.807	 -24.0307
 1625.828	 -23.9862
 1643.029	 -23.9355
 1660.412	 -23.8918
 1677.978	 -23.8602
 1695.731	 -23.8329
 1713.671	 -23.8066
 1731.801	 -23.7813
 1750.123	 -23.7636
 1768.639	 -23.7475
 1787.351	 -23.7414
 1806.260	 -23.7386
 1825.370	 -23.7471
 1844.682	 -23.7593
 1864.198	 -23.7716
 1883.921	 -23.7828
 1903.852	 -23.8015
 1923.995	 -23.8275
 1944.350	 -23.8690
 1964.920	 -23.9276
 1985.709	 -24.0102
 2006.717	 -24.1118
 2027.948	 -24.2274
 2049.403	 -24.3330
 2071.085	 -24.4229
 2092.996	 -24.4847
 2115.139	 -24.5232
 2137.517	 -24.5375
 2160.131	 -24.5314
 2182.985	 -24.4945
 2206.080	 -24.4359
 2229.420	 -24.3567
 2253.007	 -24.2683
 2276.843	 -24.1785
 2300.931	 -24.0970
 2325.274	 -24.0227
 2349.875	 -23.9600
 2374.736	 -23.9085
 2399.860	 -23.8659
 2425.250	 -23.8253
 2450.908	 -23.7835
 2476.838	 -23.7436
 2503.042	 -23.7163
 2529.524	 -23.7216
 2556.286	 -23.7715
 2583.330	 -23.8593
 2610.661	 -23.9723
 2638.281	 -24.0910
 2666.194	 -24.2068
 2694.401	 -24.3138
 2722.907	 -24.4202
 2751.715	 -24.5266
 2780.827	 -24.6241
 2810.247	 -24.6918
 2839.979	 -24.7122
 2870.025	 -24.6890
 2900.389	 -24.6363
 2931.074	 -24.5855
 2962.084	 -24.5519
 2993.422	 -24.5340
 3025.092	 -24.5307
 3057.097	 -24.5486
 3089.440	 -24.5980
 3122.125	 -24.6780
 3155.156	 -24.7780
 3188.537	 -24.8835
 3222.271	 -24.9868
 3256.362	 -25.0869
 3290.813	 -25.1897
 3325.629	 -25.2980
 3360.813	 -25.4028
 3396.369	 -25.4883
 3432.302	 -25.5373
 3468.615	 -25.5360
 3505.312	 -25.4797
 3542.397	 -25.3828
 3579.875	 -25.2721
 3617.749	 -25.1764
 3656.023	 -25.1345
 3694.703	 -25.1307
 3733.792	 -25.1244
 3773.294	 -25.0546
 3813.215	 -24.8757
 3853.557	 -24.5814
 3894.327	 -24.1890
 3935.528	 -23.7201
 3977.165	 -23.1768
 4019.242	 -22.5017
 4061.764	 -21.6644
 4104.737	 -20.6893
 4148.164	 -19.6796
 4192.050	 -18.7674
 4236.400	 -18.0026
 4281.221	 -17.3090
 4326.515	 -16.6249
 4372.288	 -15.9481
 4418.545	 -15.3202
 4465.292	 -14.7944
 4512.534	 -14.3977
 4560.275	 -14.1290
 4608.521	 -13.9734
 4657.278	 -13.9078
 4706.551	 -13.9125
 4756.345	 -13.9856
 4806.666	 -14.1373
 4857.519	 -14.3870
 4908.910	 -14.7524
 4960.845	 -15.2080
 5013.330	 -15.7085
 5066.369	 -16.2255
 5119.970	 -16.7427
 5174.138	 -17.2552
 5228.878	 -17.7618
 5284.198	 -18.2454
 5340.104	 -18.6880
 5396.601	 -19.0955
 5453.695	 -19.4937
 5511.394	 -19.9138
 5569.703	 -20.3562
 5628.628	 -20.7893
 5688.178	 -21.1987
 5748.357	 -21.5943
 5809.173	 -21.9851
 5870.632	 -22.3710
 5932.742	 -22.7382
 5995.509	 -23.0617
 6058.939	 -23.3455
 6123.041	 -23.5981
 6187.821	 -23.8340
 6253.287	 -24.0512
 6319.445	 -24.2403
 6386.303	 -24.4037
 6453.868	 -24.5440
 6522.148	 -24.6582
 6591.150	 -24.7348
 6660.883	 -24.7662
 6731.353	 -24.7490
 6802.569	 -24.6844
 6874.538	 -24.5853
 6947.269	 -24.4735
 7020.769	 -24.3652
 7095.046	 -24.2570
 7170.110	 -24.1666
 7245.968	 -24.1258
 7322.628	 -24.1604
 7400.100	 -24.2739
 7478.390	 -24.4562
 7557.510	 -24.6964
 7637.466	 -24.9884
 7718.268	 -25.3251
 7799.925	 -25.6864
 7882.446	 -26.0484
 7965.840	 -26.3828
 8050.116	 -26.6680
 8135.284	 -26.8922
 8221.354	 -27.0372
 8308.333	 -27.1497
 8396.232	 -27.2952
 8485.063	 -27.5062
 8574.832	 -27.7661
 8665.551	 -28.0488
 8757.230	 -28.3333
 8849.879	 -28.5875
 8943.509	 -28.7551
 9038.128	 -28.7391
 9133.749	 -28.4546
 9230.382	 -27.9240
 9328.036	 -27.2577
 9426.725	 -26.6005
 9526.456	 -26.0445
 9627.243	 -25.6210
 9729.097	 -25.3358
 9832.028	 -25.1863
 9936.048	 -25.1691
10041.169	 -25.2869
10147.401	 -25.5509
10254.758	 -25.9749
10363.250	 -26.5694
10472.891	 -27.3349
10583.690	 -28.2397
10695.663	 -29.2471
10808.820	 -30.3041
10923.175	 -31.3314
11038.738	 -32.2481
11155.525	 -32.9472
11273.547	 -33.3716
11392.818	 -33.5826
11513.351	 -33.6798
11635.159	 -33.7293
11758.256	 -33.7498
11882.654	 -33.7268
12008.370	 -33.6322
12135.415	 -33.4384
12263.804	 -33.1585
12393.552	 -32.8428
12524.672	 -32.5660
12657.179	 -32.3781
12791.089	 -32.2810
12926.415	 -32.2341
13063.172	 -32.1937
13201.377	 -32.1454
13341.044	 -32.1065
13482.188	 -32.1178
13624.826	 -32.2160
13768.973	 -32.3998
13914.645	 -32.6221
14061.857	 -32.7866
14210.628	 -32.8240
14360.973	 -32.7336
14512.907	 -32.5982
14666.449	 -32.4779
14821.616	 -32.4079
14978.425	 -32.3771
15136.893	 -32.3759
15297.036	 -32.4083
15458.875	 -32.4838
15622.425	 -32.6059
15787.706	 -32.7715
15954.735	 -32.9362
16123.532	 -33.0250
16294.114	 -32.9724
16466.502	 -32.7938
16640.713	 -32.5466
16816.766	 -32.3085
16994.682	 -32.1104
17174.482	 -31.9661
17356.182	 -31.8756
17539.807	 -31.8419
17725.373	 -31.8777
17912.902	 -32.0156
18102.414	 -32.2948
18293.934	 -32.7415
18487.479	 -33.3602
18683.070	 -34.1060
18880.732	 -34.8946
19080.484	 -35.6545
19282.350	 -36.3553
19486.352	 -37.0309
19692.512	 -37.7651
19900.854	 -38.6189
20111.398	 -39.6212
20324.172	 -40.6387
20539.195	 -48.6204
20756.494	 -49.4723
20976.092	 -50.2742
21198.014	 -51.0843
21422.281	 -51.9072
