Smoothed Frequency Response
Resolution = 1/6 octave
Numpoints = 720
SamplingRate = 44100 Hz
Frequency(Hz)   Magnitude(dB)
   11.082	 -22.0881
   11.199	 -22.0673
   11.318	 -22.0462
   11.438	 -22.0242
   11.559	 -21.9995
   11.681	 -21.9696
   11.804	 -21.9340
   11.929	 -21.8906
   12.056	 -21.8469
   12.183	 -21.8029
   12.312	 -21.7586
   12.442	 -21.7140
   12.574	 -21.6692
   12.707	 -21.6241
   12.841	 -21.5788
   12.977	 -21.5333
   13.114	 -21.4876
   13.253	 -21.4416
   13.393	 -21.3955
   13.535	 -21.3492
   13.678	 -21.3027
   13.823	 -21.2561
   13.969	 -21.2094
   14.117	 -21.1626
   14.266	 -21.1157
   14.417	 -21.0687
   14.570	 -21.0217
   14.724	 -20.9747
   14.880	 -20.9276
   15.037	 -20.8806
   15.196	 -20.8337
   15.357	 -20.7868
   15.520	 -20.7401
   15.684	 -20.6934
   15.850	 -20.6470
   16.017	 -20.6008
   16.187	 -20.5548
   16.358	 -20.5090
   16.531	 -20.4636
   16.706	 -20.4186
   16.883	 -20.3739
   17.061	 -20.3297
   17.242	 -20.2859
   17.424	 -20.2427
   17.609	 -20.2001
   17.795	 -20.1581
   17.983	 -20.1167
   18.174	 -20.0762
   18.366	 -20.0364
   18.560	 -19.9975
   18.756	 -19.9595
   18.955	 -19.9224
   19.155	 -19.8865
   19.358	 -19.8517
   19.563	 -19.8180
   19.770	 -19.7857
   19.979	 -19.7547
   20.190	 -19.7252
   20.404	 -19.6972
   20.620	 -19.6707
   20.838	 -19.6457
   21.058	 -19.6220
   21.281	 -19.5996
   21.506	 -19.5783
   21.734	 -19.5580
   21.964	 -19.5386
   22.196	 -19.5199
   22.431	 -19.5017
   22.668	 -19.4840
   22.908	 -19.4665
   23.151	 -19.4492
   23.396	 -19.4321
   23.643	 -19.4152
   23.893	 -19.3984
   24.146	 -19.3819
   24.401	 -19.3656
   24.660	 -19.3495
   24.920	 -19.3337
   25.184	 -19.3181
   25.451	 -19.3027
   25.720	 -19.2877
   25.992	 -19.2729
   26.267	 -19.2584
   26.545	 -19.2442
   26.826	 -19.2303
   27.109	 -19.2168
   27.396	 -19.2036
   27.686	 -19.1908
   27.979	 -19.1783
   28.275	 -19.1663
   28.574	 -19.1546
   28.876	 -19.1434
   29.182	 -19.1326
   29.491	 -19.1223
   29.803	 -19.1124
   30.118	 -19.1031
   30.437	 -19.0942
   30.759	 -19.0858
   31.084	 -19.0780
   31.413	 -19.0706
   31.745	 -19.0637
   32.081	 -19.0571
   32.421	 -19.0509
   32.764	 -19.0450
   33.110	 -19.0394
   33.460	 -19.0340
   33.814	 -19.0288
   34.172	 -19.0238
   34.534	 -19.0188
   34.899	 -19.0139
   35.268	 -19.0092
   35.641	 -19.0045
   36.019	 -19.0000
   36.400	 -18.9956
   36.785	 -18.9913
   37.174	 -18.9871
   37.567	 -18.9830
   37.965	 -18.9791
   38.366	 -18.9753
   38.772	 -18.9717
   39.182	 -18.9682
   39.597	 -18.9648
   40.016	 -18.9616
   40.439	 -18.9586
   40.867	 -18.9557
   41.299	 -18.9529
   41.736	 -18.9500
   42.178	 -18.9472
   42.624	 -18.9444
   43.075	 -18.9415
   43.531	 -18.9387
   43.991	 -18.9358
   44.457	 -18.9330
   44.927	 -18.9302
   45.402	 -18.9274
   45.883	 -18.9247
   46.368	 -18.9221
   46.859	 -18.9198
   47.354	 -18.9177
   47.855	 -18.9159
   48.362	 -18.9143
   48.873	 -18.9129
   49.390	 -18.9118
   49.913	 -18.9109
   50.441	 -18.9104
   50.975	 -18.9102
   51.514	 -18.9106
   52.059	 -18.9118
   52.610	 -18.9139
   53.166	 -18.9172
   53.729	 -18.9216
   54.297	 -18.9275
   54.872	 -18.9347
   55.452	 -18.9435
   56.039	 -18.9537
   56.632	 -18.9654
   57.231	 -18.9783
   57.837	 -18.9923
   58.448	 -19.0070
   59.067	 -19.0222
   59.692	 -19.0376
   60.323	 -19.0527
   60.961	 -19.0675
   61.606	 -19.0816
   62.258	 -19.0950
   62.917	 -19.1073
   63.582	 -19.1185
   64.255	 -19.1286
   64.935	 -19.1374
   65.622	 -19.1448
   66.316	 -19.1509
   67.018	 -19.1556
   67.727	 -19.1590
   68.443	 -19.1611
   69.167	 -19.1618
   69.899	 -19.1611
   70.639	 -19.1589
   71.386	 -19.1548
   72.141	 -19.1486
   72.905	 -19.1396
   73.676	 -19.1275
   74.455	 -19.1122
   75.243	 -19.0936
   76.039	 -19.0715
   76.844	 -19.0460
   77.657	 -19.0174
   78.478	 -18.9858
   79.308	 -18.9517
   80.147	 -18.9158
   80.995	 -18.8789
   81.852	 -18.8418
   82.718	 -18.8051
   83.593	 -18.7691
   84.478	 -18.7342
   85.372	 -18.7005
   86.275	 -18.6683
   87.188	 -18.6377
   88.110	 -18.6087
   89.042	 -18.5813
   89.984	 -18.5554
   90.936	 -18.5310
   91.898	 -18.5083
   92.871	 -18.4875
   93.853	 -18.4688
   94.846	 -18.4523
   95.849	 -18.4380
   96.864	 -18.4258
   97.888	 -18.4158
   98.924	 -18.4078
   99.971	 -18.4019
  101.028	 -18.3979
  102.097	 -18.3956
  103.177	 -18.3948
  104.269	 -18.3952
  105.372	 -18.3966
  106.487	 -18.3991
  107.613	 -18.4025
  108.752	 -18.4068
  109.902	 -18.4118
  111.065	 -18.4173
  112.240	 -18.4231
  113.428	 -18.4287
  114.628	 -18.4338
  115.840	 -18.4380
  117.066	 -18.4411
  118.304	 -18.4429
  119.556	 -18.4434
  120.821	 -18.4426
  122.099	 -18.4409
  123.391	 -18.4388
  124.696	 -18.4370
  126.016	 -18.4359
  127.349	 -18.4362
  128.696	 -18.4381
  130.058	 -18.4419
  131.434	 -18.4474
  132.824	 -18.4543
  134.230	 -18.4623
  135.650	 -18.4708
  137.085	 -18.4793
  138.535	 -18.4872
  140.001	 -18.4942
  141.482	 -18.5001
  142.979	 -18.5049
  144.491	 -18.5089
  146.020	 -18.5123
  147.565	 -18.5155
  149.126	 -18.5188
  150.704	 -18.5228
  152.298	 -18.5276
  153.910	 -18.5334
  155.538	 -18.5404
  157.183	 -18.5486
  158.846	 -18.5578
  160.527	 -18.5680
  162.225	 -18.5787
  163.942	 -18.5895
  165.676	 -18.5998
  167.429	 -18.6092
  169.200	 -18.6173
  170.990	 -18.6243
  172.799	 -18.6299
  174.627	 -18.6343
  176.475	 -18.6375
  178.342	 -18.6396
  180.229	 -18.6407
  182.136	 -18.6413
  184.063	 -18.6420
  186.010	 -18.6434
  187.978	 -18.6460
  189.967	 -18.6502
  191.976	 -18.6558
  194.007	 -18.6621
  196.060	 -18.6683
  198.134	 -18.6739
  200.230	 -18.6785
  202.349	 -18.6818
  204.490	 -18.6838
  206.653	 -18.6843
  208.839	 -18.6830
  211.049	 -18.6798
  213.282	 -18.6748
  215.538	 -18.6686
  217.818	 -18.6625
  220.123	 -18.6573
  222.452	 -18.6542
  224.805	 -18.6538
  227.184	 -18.6567
  229.587	 -18.6633
  232.016	 -18.6739
  234.471	 -18.6880
  236.951	 -18.7047
  239.458	 -18.7232
  241.992	 -18.7427
  244.552	 -18.7629
  247.139	 -18.7836
  249.754	 -18.8049
  252.396	 -18.8267
  255.066	 -18.8487
  257.765	 -18.8711
  260.492	 -18.8941
  263.248	 -18.9187
  266.033	 -18.9458
  268.848	 -18.9762
  271.692	 -19.0102
  274.566	 -19.0474
  277.471	 -19.0877
  280.407	 -19.1308
  283.373	 -19.1763
  286.371	 -19.2235
  289.401	 -19.2712
  292.463	 -19.3190
  295.557	 -19.3662
  298.684	 -19.4129
  301.844	 -19.4589
  305.037	 -19.5041
  308.265	 -19.5480
  311.526	 -19.5900
  314.822	 -19.6297
  318.152	 -19.6668
  321.518	 -19.7015
  324.920	 -19.7339
  328.358	 -19.7644
  331.832	 -19.7926
  335.342	 -19.8182
  338.890	 -19.8409
  342.475	 -19.8607
  346.099	 -19.8775
  349.760	 -19.8915
  353.461	 -19.9031
  357.200	 -19.9124
  360.979	 -19.9196
  364.798	 -19.9250
  368.658	 -19.9287
  372.558	 -19.9307
  376.500	 -19.9312
  380.483	 -19.9300
  384.508	 -19.9271
  388.576	 -19.9224
  392.687	 -19.9159
  396.842	 -19.9078
  401.040	 -19.8985
  405.283	 -19.8881
  409.571	 -19.8771
  413.904	 -19.8654
  418.283	 -19.8532
  422.708	 -19.8407
  427.181	 -19.8281
  431.700	 -19.8157
  436.267	 -19.8037
  440.883	 -19.7921
  445.547	 -19.7807
  450.261	 -19.7693
  455.025	 -19.7580
  459.839	 -19.7468
  464.704	 -19.7361
  469.620	 -19.7262
  474.589	 -19.7172
  479.610	 -19.7095
  484.684	 -19.7035
  489.811	 -19.6996
  494.994	 -19.6981
  500.230	 -19.6995
  505.523	 -19.7039
  510.871	 -19.7113
  516.276	 -19.7214
  521.738	 -19.7344
  527.258	 -19.7500
  532.836	 -19.7683
  538.473	 -19.7890
  544.170	 -19.8114
  549.927	 -19.8348
  555.745	 -19.8586
  561.625	 -19.8825
  567.567	 -19.9061
  573.572	 -19.9292
  579.640	 -19.9516
  585.772	 -19.9729
  591.969	 -19.9929
  598.232	 -20.0113
  604.561	 -20.0284
  610.958	 -20.0442
  617.421	 -20.0590
  623.953	 -20.0728
  630.555	 -20.0855
  637.226	 -20.0968
  643.967	 -20.1065
  650.780	 -20.1146
  657.666	 -20.1210
  664.623	 -20.1255
  671.655	 -20.1279
  678.761	 -20.1280
  685.942	 -20.1258
  693.199	 -20.1213
  700.533	 -20.1153
  707.944	 -20.1087
  715.434	 -20.1022
  723.003	 -20.0966
  730.652	 -20.0920
  738.383	 -20.0887
  746.194	 -20.0867
  754.089	 -20.0856
  762.067	 -20.0853
  770.129	 -20.0857
  778.277	 -20.0874
  786.511	 -20.0905
  794.832	 -20.0948
  803.241	 -20.0997
  811.739	 -20.1042
  820.327	 -20.1075
  829.006	 -20.1095
  837.777	 -20.1106
  846.640	 -20.1122
  855.597	 -20.1146
  864.649	 -20.1159
  873.797	 -20.1132
  883.042	 -20.1041
  892.384	 -20.0887
  901.825	 -20.0694
  911.366	 -20.0485
  921.008	 -20.0277
  930.752	 -20.0081
  940.599	 -19.9894
  950.551	 -19.9711
  960.607	 -19.9540
  970.770	 -19.9403
  981.041	 -19.9319
  991.420	 -19.9296
 1001.909	 -19.9318
 1012.509	 -19.9361
 1023.221	 -19.9400
 1034.046	 -19.9424
 1044.986	 -19.9427
 1056.042	 -19.9402
 1067.214	 -19.9349
 1078.505	 -19.9272
 1089.915	 -19.9178
 1101.446	 -19.9071
 1113.099	 -19.8959
 1124.875	 -19.8865
 1136.776	 -19.8797
 1148.803	 -19.8759
 1160.957	 -19.8770
 1173.240	 -19.8836
 1185.652	 -19.8937
 1198.196	 -19.9058
 1210.873	 -19.9192
 1223.683	 -19.9355
 1236.630	 -19.9543
 1249.713	 -19.9753
 1262.934	 -19.9969
 1276.296	 -20.0167
 1289.799	 -20.0336
 1303.444	 -20.0473
 1317.234	 -20.0591
 1331.170	 -20.0698
 1345.254	 -20.0804
 1359.486	 -20.0911
 1373.869	 -20.0989
 1388.404	 -20.1031
 1403.093	 -20.1048
 1417.938	 -20.1083
 1432.939	 -20.1123
 1448.099	 -20.1180
 1463.420	 -20.1236
 1478.902	 -20.1293
 1494.548	 -20.1367
 1510.360	 -20.1474
 1526.339	 -20.1605
 1542.488	 -20.1769
 1558.807	 -20.1962
 1575.299	 -20.2185
 1591.965	 -20.2416
 1608.807	 -20.2649
 1625.828	 -20.2883
 1643.029	 -20.3142
 1660.412	 -20.3401
 1677.978	 -20.3658
 1695.731	 -20.3895
 1713.671	 -20.4148
 1731.801	 -20.4426
 1750.123	 -20.4715
 1768.639	 -20.5005
 1787.351	 -20.5320
 1806.260	 -20.5672
 1825.370	 -20.6062
 1844.682	 -20.6467
 1864.198	 -20.6881
 1883.921	 -20.7317
 1903.852	 -20.7772
 1923.995	 -20.8200
 1944.350	 -20.8578
 1964.920	 -20.8882
 1985.709	 -20.9151
 2006.717	 -20.9376
 2027.948	 -20.9537
 2049.403	 -20.9641
 2071.085	 -20.9725
 2092.996	 -20.9778
 2115.139	 -20.9813
 2137.517	 -20.9853
 2160.131	 -20.9928
 2182.985	 -21.0068
 2206.080	 -21.0301
 2229.420	 -21.0608
 2253.007	 -21.0988
 2276.843	 -21.1435
 2300.931	 -21.1960
 2325.274	 -21.2526
 2349.875	 -21.3116
 2374.736	 -21.3692
 2399.860	 -21.4245
 2425.250	 -21.4728
 2450.908	 -21.5104
 2476.838	 -21.5387
 2503.042	 -21.5556
 2529.524	 -21.5573
 2556.286	 -21.5456
 2583.330	 -21.5194
 2610.661	 -21.4787
 2638.281	 -21.4299
 2666.194	 -21.3719
 2694.401	 -21.3062
 2722.907	 -21.2348
 2751.715	 -21.1598
 2780.827	 -21.0843
 2810.247	 -21.0114
 2839.979	 -20.9444
 2870.025	 -20.8879
 2900.389	 -20.8442
 2931.074	 -20.8121
 2962.084	 -20.7927
 2993.422	 -20.7854
 3025.092	 -20.7869
 3057.097	 -20.8007
 3089.440	 -20.8234
 3122.125	 -20.8523
 3155.156	 -20.8846
 3188.537	 -20.9166
 3222.271	 -20.9455
 3256.362	 -20.9691
 3290.813	 -20.9859
 3325.629	 -20.9961
 3360.813	 -21.0003
 3396.369	 -20.9990
 3432.302	 -20.9925
 3468.615	 -20.9801
 3505.312	 -20.9636
 3542.397	 -20.9429
 3579.875	 -20.9146
 3617.749	 -20.8715
 3656.023	 -20.8044
 3694.703	 -20.7046
 3733.792	 -20.5627
 3773.294	 -20.3625
 3813.215	 -20.0835
 3853.557	 -19.6996
 3894.327	 -19.1869
 3935.528	 -18.5192
 3977.165	 -17.6768
 4019.242	 -16.6639
 4061.764	 -15.5483
 4104.737	 -14.4214
 4148.164	 -13.3633
 4192.050	 -12.3940
 4236.400	 -11.5382
 4281.221	 -10.8126
 4326.515	 -10.2329
 4372.288	 -9.7930
 4418.545	 -9.4856
 4465.292	 -9.2987
 4512.534	 -9.2282
 4560.275	 -9.2734
 4608.521	 -9.4327
 4657.278	 -9.7029
 4706.551	 -10.0843
 4756.345	 -10.5704
 4806.666	 -11.1504
 4857.519	 -11.7861
 4908.910	 -12.4369
 4960.845	 -13.0684
 5013.330	 -13.6719
 5066.369	 -14.2232
 5119.970	 -14.7097
 5174.138	 -15.1160
 5228.878	 -15.4376
 5284.198	 -15.6865
 5340.104	 -15.8794
 5396.601	 -16.0326
 5453.695	 -16.1744
 5511.394	 -16.3285
 5569.703	 -16.5128
 5628.628	 -16.7441
 5688.178	 -17.0329
 5748.357	 -17.3821
 5809.173	 -17.7915
 5870.632	 -18.2454
 5932.742	 -18.7139
 5995.509	 -19.1529
 6058.939	 -19.5290
 6123.041	 -19.8364
 6187.821	 -20.0884
 6253.287	 -20.2973
 6319.445	 -20.4784
 6386.303	 -20.6412
 6453.868	 -20.7847
 6522.148	 -20.9142
 6591.150	 -21.0454
 6660.883	 -21.1959
 6731.353	 -21.3724
 6802.569	 -21.5561
 6874.538	 -21.7010
 6947.269	 -21.7265
 7020.769	 -21.5521
 7095.046	 -21.1795
 7170.110	 -20.6888
 7245.968	 -20.1838
 7322.628	 -19.7275
 7400.100	 -19.3270
 7478.390	 -18.9443
 7557.510	 -18.5489
 7637.466	 -18.1276
 7718.268	 -17.7100
 7799.925	 -17.3525
 7882.446	 -17.1056
 7965.840	 -16.9990
 8050.116	 -17.0205
 8135.284	 -17.1281
 8221.354	 -17.2800
 8308.333	 -17.4746
 8396.232	 -17.7526
 8485.063	 -18.1700
 8574.832	 -18.7802
 8665.551	 -19.6062
 8757.230	 -20.6453
 8849.879	 -21.8484
 8943.509	 -23.1310
 9038.128	 -24.4311
 9133.749	 -25.7522
 9230.382	 -27.2305
 9328.036	 -29.0183
 9426.725	 -31.1798
 9526.456	 -33.3336
 9627.243	 -34.6633
 9729.097	 -34.8780
 9832.028	 -34.5426
 9936.048	 -34.1601
10041.169	 -33.9185
10147.401	 -33.8342
10254.758	 -33.8129
10363.250	 -33.7343
10472.891	 -33.5623
10583.690	 -33.3537
10695.663	 -33.1928
10808.820	 -33.1727
10923.175	 -33.3379
11038.738	 -33.6380
11155.525	 -34.0127
11273.547	 -34.4025
11392.818	 -34.7476
11513.351	 -34.9388
11635.159	 -34.8887
11758.256	 -34.5956
11882.654	 -34.0605
12008.370	 -33.3586
12135.415	 -32.5587
12263.804	 -31.8265
12393.552	 -31.2700
12524.672	 -30.9213
12657.179	 -30.7650
12791.089	 -30.7690
12926.415	 -30.9026
13063.172	 -31.1478
13201.377	 -31.4894
13341.044	 -31.8754
13482.188	 -32.2403
13624.826	 -32.5105
13768.973	 -32.5384
13914.645	 -32.2302
14061.857	 -31.5765
14210.628	 -30.7504
14360.973	 -29.9346
14512.907	 -29.2228
14666.449	 -28.6539
14821.616	 -28.2397
14978.425	 -27.9660
15136.893	 -27.8042
15297.036	 -27.7234
15458.875	 -27.6926
15622.425	 -27.6896
15787.706	 -27.6996
15954.735	 -27.6932
16123.532	 -27.6358
16294.114	 -27.5216
16466.502	 -27.3728
16640.713	 -27.2241
16816.766	 -27.1051
16994.682	 -27.0268
17174.482	 -26.9822
17356.182	 -26.9569
17539.807	 -26.9430
17725.373	 -26.9578
17912.902	 -27.0462
18102.414	 -27.2492
18293.934	 -27.5776
18487.479	 -28.0053
18683.070	 -28.4797
18880.732	 -28.9734
19080.484	 -29.5044
19282.350	 -30.1174
19486.352	 -30.8804
19692.512	 -31.8732
19900.854	 -33.1532
20111.398	 -34.7271
20324.172	 -36.4030
20539.195	 -38.0537
20756.494	 -39.5341
20976.092	 -40.8809
21198.014	 -42.1887
21422.281	 -43.5398
