Smoothed Frequency Response
Resolution = 1/6 octave
Numpoints = 720
SamplingRate = 44100 Hz
Frequency(Hz)   Magnitude(dB)
   11.082	 -20.2601
   11.199	 -20.2435
   11.318	 -20.2266
   11.438	 -20.2090
   11.559	 -20.1893
   11.681	 -20.1653
   11.804	 -20.1368
   11.929	 -20.1020
   12.056	 -20.0670
   12.183	 -20.0317
   12.312	 -19.9962
   12.442	 -19.9605
   12.574	 -19.9246
   12.707	 -19.8885
   12.841	 -19.8523
   12.977	 -19.8158
   13.114	 -19.7792
   13.253	 -19.7424
   13.393	 -19.7055
   13.535	 -19.6684
   13.678	 -19.6312
   13.823	 -19.5939
   13.969	 -19.5565
   14.117	 -19.5191
   14.266	 -19.4815
   14.417	 -19.4439
   14.570	 -19.4063
   14.724	 -19.3686
   14.880	 -19.3310
   15.037	 -19.2933
   15.196	 -19.2557
   15.357	 -19.2182
   15.520	 -19.1807
   15.684	 -19.1434
   15.850	 -19.1062
   16.017	 -19.0691
   16.187	 -19.0322
   16.358	 -18.9955
   16.531	 -18.9591
   16.706	 -18.9229
   16.883	 -18.8870
   17.061	 -18.8514
   17.242	 -18.8163
   17.424	 -18.7815
   17.609	 -18.7471
   17.795	 -18.7133
   17.983	 -18.6799
   18.174	 -18.6471
   18.366	 -18.6150
   18.560	 -18.5834
   18.756	 -18.5526
   18.955	 -18.5225
   19.155	 -18.4933
   19.358	 -18.4649
   19.563	 -18.4374
   19.770	 -18.4109
   19.979	 -18.3854
   20.190	 -18.3610
   20.404	 -18.3378
   20.620	 -18.3157
   20.838	 -18.2948
   21.058	 -18.2749
   21.281	 -18.2560
   21.506	 -18.2380
   21.734	 -18.2207
   21.964	 -18.2041
   22.196	 -18.1880
   22.431	 -18.1724
   22.668	 -18.1572
   22.908	 -18.1421
   23.151	 -18.1273
   23.396	 -18.1126
   23.643	 -18.0981
   23.893	 -18.0838
   24.146	 -18.0696
   24.401	 -18.0557
   24.660	 -18.0420
   24.920	 -18.0285
   25.184	 -18.0152
   25.451	 -18.0022
   25.720	 -17.9894
   25.992	 -17.9769
   26.267	 -17.9647
   26.545	 -17.9527
   26.826	 -17.9411
   27.109	 -17.9298
   27.396	 -17.9187
   27.686	 -17.9080
   27.979	 -17.8977
   28.275	 -17.8878
   28.574	 -17.8782
   28.876	 -17.8689
   29.182	 -17.8602
   29.491	 -17.8518
   29.803	 -17.8438
   30.118	 -17.8363
   30.437	 -17.8293
   30.759	 -17.8228
   31.084	 -17.8168
   31.413	 -17.8112
   31.745	 -17.8062
   32.081	 -17.8017
   32.421	 -17.7976
   32.764	 -17.7939
   33.110	 -17.7907
   33.460	 -17.7877
   33.814	 -17.7851
   34.172	 -17.7828
   34.534	 -17.7807
   34.899	 -17.7788
   35.268	 -17.7771
   35.641	 -17.7755
   36.019	 -17.7740
   36.400	 -17.7726
   36.785	 -17.7713
   37.174	 -17.7700
   37.567	 -17.7687
   37.965	 -17.7674
   38.366	 -17.7661
   38.772	 -17.7647
   39.182	 -17.7632
   39.597	 -17.7615
   40.016	 -17.7597
   40.439	 -17.7576
   40.867	 -17.7553
   41.299	 -17.7527
   41.736	 -17.7500
   42.178	 -17.7470
   42.624	 -17.7437
   43.075	 -17.7402
   43.531	 -17.7364
   43.991	 -17.7323
   44.457	 -17.7279
   44.927	 -17.7233
   45.402	 -17.7184
   45.883	 -17.7133
   46.368	 -17.7079
   46.859	 -17.7022
   47.354	 -17.6964
   47.855	 -17.6903
   48.362	 -17.6841
   48.873	 -17.6779
   49.390	 -17.6717
   49.913	 -17.6655
   50.441	 -17.6595
   50.975	 -17.6539
   51.514	 -17.6489
   52.059	 -17.6449
   52.610	 -17.6419
   53.166	 -17.6401
   53.729	 -17.6395
   54.297	 -17.6401
   54.872	 -17.6420
   55.452	 -17.6450
   56.039	 -17.6492
   56.632	 -17.6544
   57.231	 -17.6604
   57.837	 -17.6670
   58.448	 -17.6737
   59.067	 -17.6807
   59.692	 -17.6877
   60.323	 -17.6947
   60.961	 -17.7017
   61.606	 -17.7086
   62.258	 -17.7154
   62.917	 -17.7221
   63.582	 -17.7287
   64.255	 -17.7352
   64.935	 -17.7415
   65.622	 -17.7477
   66.316	 -17.7537
   67.018	 -17.7596
   67.727	 -17.7653
   68.443	 -17.7709
   69.167	 -17.7764
   69.899	 -17.7815
   70.639	 -17.7865
   71.386	 -17.7905
   72.141	 -17.7932
   72.905	 -17.7937
   73.676	 -17.7919
   74.455	 -17.7875
   75.243	 -17.7805
   76.039	 -17.7708
   76.844	 -17.7585
   77.657	 -17.7435
   78.478	 -17.7259
   79.308	 -17.7059
   80.147	 -17.6841
   80.995	 -17.6608
   81.852	 -17.6370
   82.718	 -17.6126
   83.593	 -17.5876
   84.478	 -17.5621
   85.372	 -17.5360
   86.275	 -17.5093
   87.188	 -17.4819
   88.110	 -17.4541
   89.042	 -17.4257
   89.984	 -17.3969
   90.936	 -17.3677
   91.898	 -17.3388
   92.871	 -17.3104
   93.853	 -17.2833
   94.846	 -17.2577
   95.849	 -17.2338
   96.864	 -17.2118
   97.888	 -17.1918
   98.924	 -17.1739
   99.971	 -17.1583
  101.028	 -17.1450
  102.097	 -17.1338
  103.177	 -17.1242
  104.269	 -17.1160
  105.372	 -17.1086
  106.487	 -17.1021
  107.613	 -17.0965
  108.752	 -17.0918
  109.902	 -17.0881
  111.065	 -17.0852
  112.240	 -17.0836
  113.428	 -17.0834
  114.628	 -17.0850
  115.840	 -17.0886
  117.066	 -17.0941
  118.304	 -17.1017
  119.556	 -17.1111
  120.821	 -17.1223
  122.099	 -17.1350
  123.391	 -17.1490
  124.696	 -17.1641
  126.016	 -17.1800
  127.349	 -17.1962
  128.696	 -17.2123
  130.058	 -17.2282
  131.434	 -17.2437
  132.824	 -17.2585
  134.230	 -17.2724
  135.650	 -17.2850
  137.085	 -17.2961
  138.535	 -17.3057
  140.001	 -17.3136
  141.482	 -17.3202
  142.979	 -17.3258
  144.491	 -17.3308
  146.020	 -17.3354
  147.565	 -17.3399
  149.126	 -17.3448
  150.704	 -17.3505
  152.298	 -17.3573
  153.910	 -17.3655
  155.538	 -17.3752
  157.183	 -17.3864
  158.846	 -17.3989
  160.527	 -17.4122
  162.225	 -17.4263
  163.942	 -17.4406
  165.676	 -17.4551
  167.429	 -17.4696
  169.200	 -17.4841
  170.990	 -17.4984
  172.799	 -17.5124
  174.627	 -17.5260
  176.475	 -17.5391
  178.342	 -17.5518
  180.229	 -17.5639
  182.136	 -17.5756
  184.063	 -17.5869
  186.010	 -17.5982
  187.978	 -17.6094
  189.967	 -17.6206
  191.976	 -17.6319
  194.007	 -17.6432
  196.060	 -17.6540
  198.134	 -17.6642
  200.230	 -17.6736
  202.349	 -17.6822
  204.490	 -17.6902
  206.653	 -17.6978
  208.839	 -17.7052
  211.049	 -17.7125
  213.282	 -17.7195
  215.538	 -17.7259
  217.818	 -17.7316
  220.123	 -17.7363
  222.452	 -17.7405
  224.805	 -17.7450
  227.184	 -17.7509
  229.587	 -17.7588
  232.016	 -17.7689
  234.471	 -17.7806
  236.951	 -17.7932
  239.458	 -17.8065
  241.992	 -17.8206
  244.552	 -17.8360
  247.139	 -17.8531
  249.754	 -17.8715
  252.396	 -17.8903
  255.066	 -17.9088
  257.765	 -17.9263
  260.492	 -17.9432
  263.248	 -17.9601
  266.033	 -17.9780
  268.848	 -17.9973
  271.692	 -18.0182
  274.566	 -18.0408
  277.471	 -18.0661
  280.407	 -18.0949
  283.373	 -18.1271
  286.371	 -18.1613
  289.401	 -18.1954
  292.463	 -18.2276
  295.557	 -18.2582
  298.684	 -18.2880
  301.844	 -18.3177
  305.037	 -18.3478
  308.265	 -18.3776
  311.526	 -18.4064
  314.822	 -18.4334
  318.152	 -18.4584
  321.518	 -18.4831
  324.920	 -18.5091
  328.358	 -18.5376
  331.832	 -18.5679
  335.342	 -18.5989
  338.890	 -18.6293
  342.475	 -18.6588
  346.099	 -18.6875
  349.760	 -18.7151
  353.461	 -18.7420
  357.200	 -18.7683
  360.979	 -18.7943
  364.798	 -18.8199
  368.658	 -18.8450
  372.558	 -18.8694
  376.500	 -18.8932
  380.483	 -18.9165
  384.508	 -18.9393
  388.576	 -18.9618
  392.687	 -18.9838
  396.842	 -19.0054
  401.040	 -19.0264
  405.283	 -19.0471
  409.571	 -19.0675
  413.904	 -19.0879
  418.283	 -19.1085
  422.708	 -19.1293
  427.181	 -19.1505
  431.700	 -19.1723
  436.267	 -19.1950
  440.883	 -19.2186
  445.547	 -19.2429
  450.261	 -19.2681
  455.025	 -19.2943
  459.839	 -19.3212
  464.704	 -19.3486
  469.620	 -19.3764
  474.589	 -19.4042
  479.610	 -19.4319
  484.684	 -19.4590
  489.811	 -19.4849
  494.994	 -19.5094
  500.230	 -19.5324
  505.523	 -19.5535
  510.871	 -19.5721
  516.276	 -19.5877
  521.738	 -19.6000
  527.258	 -19.6088
  532.836	 -19.6140
  538.473	 -19.6158
  544.170	 -19.6145
  549.927	 -19.6108
  555.745	 -19.6052
  561.625	 -19.5985
  567.567	 -19.5911
  573.572	 -19.5835
  579.640	 -19.5762
  585.772	 -19.5695
  591.969	 -19.5636
  598.232	 -19.5585
  604.561	 -19.5542
  610.958	 -19.5501
  617.421	 -19.5456
  623.953	 -19.5401
  630.555	 -19.5328
  637.226	 -19.5236
  643.967	 -19.5125
  650.780	 -19.4995
  657.666	 -19.4847
  664.623	 -19.4680
  671.655	 -19.4498
  678.761	 -19.4309
  685.942	 -19.4118
  693.199	 -19.3932
  700.533	 -19.3760
  707.944	 -19.3608
  715.434	 -19.3482
  723.003	 -19.3387
  730.652	 -19.3328
  738.383	 -19.3305
  746.194	 -19.3323
  754.089	 -19.3374
  762.067	 -19.3455
  770.129	 -19.3564
  778.277	 -19.3702
  786.511	 -19.3867
  794.832	 -19.4056
  803.241	 -19.4263
  811.739	 -19.4482
  820.327	 -19.4701
  829.006	 -19.4906
  837.777	 -19.5083
  846.640	 -19.5216
  855.597	 -19.5293
  864.649	 -19.5304
  873.797	 -19.5241
  883.042	 -19.5109
  892.384	 -19.4909
  901.825	 -19.4657
  911.366	 -19.4368
  921.008	 -19.4058
  930.752	 -19.3748
  940.599	 -19.3454
  950.551	 -19.3191
  960.607	 -19.2972
  970.770	 -19.2805
  981.041	 -19.2683
  991.420	 -19.2611
 1001.909	 -19.2573
 1012.509	 -19.2554
 1023.221	 -19.2547
 1034.046	 -19.2541
 1044.986	 -19.2531
 1056.042	 -19.2517
 1067.214	 -19.2489
 1078.505	 -19.2437
 1089.915	 -19.2362
 1101.446	 -19.2267
 1113.099	 -19.2169
 1124.875	 -19.2079
 1136.776	 -19.2008
 1148.803	 -19.1961
 1160.957	 -19.1933
 1173.240	 -19.1935
 1185.652	 -19.1979
 1198.196	 -19.2069
 1210.873	 -19.2210
 1223.683	 -19.2386
 1236.630	 -19.2598
 1249.713	 -19.2820
 1262.934	 -19.3038
 1276.296	 -19.3243
 1289.799	 -19.3440
 1303.444	 -19.3635
 1317.234	 -19.3802
 1331.170	 -19.3929
 1345.254	 -19.4024
 1359.486	 -19.4091
 1373.869	 -19.4153
 1388.404	 -19.4196
 1403.093	 -19.4235
 1417.938	 -19.4267
 1432.939	 -19.4307
 1448.099	 -19.4355
 1463.420	 -19.4408
 1478.902	 -19.4472
 1494.548	 -19.4548
 1510.360	 -19.4614
 1526.339	 -19.4665
 1542.488	 -19.4672
 1558.807	 -19.4667
 1575.299	 -19.4630
 1591.965	 -19.4559
 1608.807	 -19.4464
 1625.828	 -19.4378
 1643.029	 -19.4325
 1660.412	 -19.4310
 1677.978	 -19.4314
 1695.731	 -19.4378
 1713.671	 -19.4508
 1731.801	 -19.4751
 1750.123	 -19.5085
 1768.639	 -19.5519
 1787.351	 -19.6010
 1806.260	 -19.6587
 1825.370	 -19.7215
 1844.682	 -19.7878
 1864.198	 -19.8571
 1883.921	 -19.9297
 1903.852	 -20.0049
 1923.995	 -20.0800
 1944.350	 -20.1474
 1964.920	 -20.2100
 1985.709	 -20.2690
 2006.717	 -20.3269
 2027.948	 -20.3851
 2049.403	 -20.4430
 2071.085	 -20.4968
 2092.996	 -20.5486
 2115.139	 -20.5968
 2137.517	 -20.6422
 2160.131	 -20.6846
 2182.985	 -20.7271
 2206.080	 -20.7698
 2229.420	 -20.8118
 2253.007	 -20.8479
 2276.843	 -20.8748
 2300.931	 -20.8915
 2325.274	 -20.8973
 2349.875	 -20.8962
 2374.736	 -20.8885
 2399.860	 -20.8743
 2425.250	 -20.8544
 2450.908	 -20.8294
 2476.838	 -20.8012
 2503.042	 -20.7682
 2529.524	 -20.7321
 2556.286	 -20.6942
 2583.330	 -20.6574
 2610.661	 -20.6217
 2638.281	 -20.5864
 2666.194	 -20.5516
 2694.401	 -20.5198
 2722.907	 -20.4937
 2751.715	 -20.4752
 2780.827	 -20.4642
 2810.247	 -20.4601
 2839.979	 -20.4612
 2870.025	 -20.4659
 2900.389	 -20.4741
 2931.074	 -20.4866
 2962.084	 -20.5039
 2993.422	 -20.5250
 3025.092	 -20.5472
 3057.097	 -20.5674
 3089.440	 -20.5850
 3122.125	 -20.6019
 3155.156	 -20.6209
 3188.537	 -20.6448
 3222.271	 -20.6763
 3256.362	 -20.7178
 3290.813	 -20.7707
 3325.629	 -20.8336
 3360.813	 -20.9062
 3396.369	 -20.9875
 3432.302	 -21.0798
 3468.615	 -21.1820
 3505.312	 -21.2911
 3542.397	 -21.4007
 3579.875	 -21.5012
 3617.749	 -21.5831
 3656.023	 -21.6372
 3694.703	 -21.6570
 3733.792	 -21.6345
 3773.294	 -21.5516
 3813.215	 -21.3858
 3853.557	 -21.1094
 3894.327	 -20.6968
 3935.528	 -20.1304
 3977.165	 -19.4168
 4019.242	 -18.5662
 4061.764	 -17.6162
 4104.737	 -16.5882
 4148.164	 -15.5343
 4192.050	 -14.4781
 4236.400	 -13.4405
 4281.221	 -12.4456
 4326.515	 -11.5101
 4372.288	 -10.6677
 4418.545	 -9.9399
 4465.292	 -9.3426
 4512.534	 -8.8789
 4560.275	 -8.5475
 4608.521	 -8.3421
 4657.278	 -8.2520
 4706.551	 -8.2732
 4756.345	 -8.4016
 4806.666	 -8.6401
 4857.519	 -8.9897
 4908.910	 -9.4437
 4960.845	 -9.9899
 5013.330	 -10.5991
 5066.369	 -11.2363
 5119.970	 -11.8545
 5174.138	 -12.4131
 5228.878	 -12.8861
 5284.198	 -13.2724
 5340.104	 -13.5896
 5396.601	 -13.8514
 5453.695	 -14.0813
 5511.394	 -14.3015
 5569.703	 -14.5273
 5628.628	 -14.7758
 5688.178	 -15.0642
 5748.357	 -15.4031
 5809.173	 -15.7928
 5870.632	 -16.2252
 5932.742	 -16.6889
 5995.509	 -17.1728
 6058.939	 -17.6780
 6123.041	 -18.2010
 6187.821	 -18.7381
 6253.287	 -19.2760
 6319.445	 -19.7990
 6386.303	 -20.2890
 6453.868	 -20.7376
 6522.148	 -21.1584
 6591.150	 -21.5574
 6660.883	 -21.9087
 6731.353	 -22.1471
 6802.569	 -22.1866
 6874.538	 -21.9711
 6947.269	 -21.4952
 7020.769	 -20.8363
 7095.046	 -20.1526
 7170.110	 -19.5632
 7245.968	 -19.1107
 7322.628	 -18.7877
 7400.100	 -18.5548
 7478.390	 -18.3798
 7557.510	 -18.2543
 7637.466	 -18.1980
 7718.268	 -18.2459
 7799.925	 -18.4261
 7882.446	 -18.7440
 7965.840	 -19.1644
 8050.116	 -19.6111
 8135.284	 -19.9800
 8221.354	 -20.2173
 8308.333	 -20.3681
 8396.232	 -20.5330
 8485.063	 -20.7962
 8574.832	 -21.1857
 8665.551	 -21.6710
 8757.230	 -22.1866
 8849.879	 -22.6742
 8943.509	 -23.1383
 9038.128	 -23.6438
 9133.749	 -24.3250
 9230.382	 -25.3341
 9328.036	 -26.7761
 9426.725	 -28.6529
 9526.456	 -30.7363
 9627.243	 -32.4595
 9729.097	 -33.3892
 9832.028	 -33.6109
 9936.048	 -33.5010
10041.169	 -33.2878
10147.401	 -33.0478
10254.758	 -32.8117
10363.250	 -32.6097
10472.891	 -32.4953
10583.690	 -32.5332
10695.663	 -32.7359
10808.820	 -33.0816
10923.175	 -33.5259
11038.738	 -34.0226
11155.525	 -34.5256
11273.547	 -34.9714
11392.818	 -35.3012
11513.351	 -35.4600
11635.159	 -35.3924
11758.256	 -35.0653
11882.654	 -34.4741
12008.370	 -33.8016
12135.415	 -33.2369
12263.804	 -32.8329
12393.552	 -32.5777
12524.672	 -32.4174
12657.179	 -32.3149
12791.089	 -32.2713
12926.415	 -32.3022
13063.172	 -32.4258
13201.377	 -32.6634
13341.044	 -33.0233
13482.188	 -33.4630
13624.826	 -33.8999
13768.973	 -34.1899
13914.645	 -34.2540
14061.857	 -34.1688
14210.628	 -34.0116
14360.973	 -33.8266
14512.907	 -33.6035
14666.449	 -33.2959
14821.616	 -32.8164
14978.425	 -32.0992
15136.893	 -31.1719
15297.036	 -30.1770
15458.875	 -29.2340
15622.425	 -28.4004
15787.706	 -27.6679
15954.735	 -27.0089
16123.532	 -26.4114
16294.114	 -25.8823
16466.502	 -25.4352
16640.713	 -25.0874
16816.766	 -24.8507
16994.682	 -24.7340
17174.482	 -24.7284
17356.182	 -24.8088
17539.807	 -24.9421
17725.373	 -25.1135
17912.902	 -25.3264
18102.414	 -25.5973
18293.934	 -25.9423
18487.479	 -26.3698
18683.070	 -26.8821
18880.732	 -27.4752
19080.484	 -28.1343
19282.350	 -28.8505
19486.352	 -29.6336
19692.512	 -30.5357
19900.854	 -31.6296
20111.398	 -32.9796
20324.172	 -34.4887
20539.195	 -36.1594
20756.494	 -37.9013
20976.092	 -39.6431
21198.014	 -41.3225
21422.281	 -42.8748
