Smoothed Frequency Response
Resolution = 1/6 octave
Numpoints = 720
SamplingRate = 44100 Hz
Frequency(Hz)   Magnitude(dB)
   11.082	 -19.7838
   11.199	 -19.7723
   11.318	 -19.7608
   11.438	 -19.7487
   11.559	 -19.7352
   11.681	 -19.7188
   11.804	 -19.6993
   11.929	 -19.6754
   12.056	 -19.6514
   12.183	 -19.6272
   12.312	 -19.6029
   12.442	 -19.5784
   12.574	 -19.5538
   12.707	 -19.5290
   12.841	 -19.5041
   12.977	 -19.4791
   13.114	 -19.4539
   13.253	 -19.4285
   13.393	 -19.4031
   13.535	 -19.3775
   13.678	 -19.3517
   13.823	 -19.3259
   13.969	 -19.2999
   14.117	 -19.2737
   14.266	 -19.2474
   14.417	 -19.2210
   14.570	 -19.1945
   14.724	 -19.1678
   14.880	 -19.1410
   15.037	 -19.1140
   15.196	 -19.0870
   15.357	 -19.0598
   15.520	 -19.0325
   15.684	 -19.0051
   15.850	 -18.9776
   16.017	 -18.9499
   16.187	 -18.9221
   16.358	 -18.8943
   16.531	 -18.8663
   16.706	 -18.8382
   16.883	 -18.8099
   17.061	 -18.7816
   17.242	 -18.7532
   17.424	 -18.7247
   17.609	 -18.6961
   17.795	 -18.6674
   17.983	 -18.6386
   18.174	 -18.6097
   18.366	 -18.5807
   18.560	 -18.5517
   18.756	 -18.5225
   18.955	 -18.4933
   19.155	 -18.4641
   19.358	 -18.4347
   19.563	 -18.4053
   19.770	 -18.3758
   19.979	 -18.3462
   20.190	 -18.3166
   20.404	 -18.2870
   20.620	 -18.2573
   20.838	 -18.2275
   21.058	 -18.1978
   21.281	 -18.1680
   21.506	 -18.1382
   21.734	 -18.1084
   21.964	 -18.0786
   22.196	 -18.0489
   22.431	 -18.0192
   22.668	 -17.9896
   22.908	 -17.9601
   23.151	 -17.9306
   23.396	 -17.9013
   23.643	 -17.8721
   23.893	 -17.8429
   24.146	 -17.8139
   24.401	 -17.7851
   24.660	 -17.7564
   24.920	 -17.7278
   25.184	 -17.6995
   25.451	 -17.6713
   25.720	 -17.6433
   25.992	 -17.6155
   26.267	 -17.5879
   26.545	 -17.5606
   26.826	 -17.5336
   27.109	 -17.5067
   27.396	 -17.4802
   27.686	 -17.4540
   27.979	 -17.4280
   28.275	 -17.4024
   28.574	 -17.3772
   28.876	 -17.3523
   29.182	 -17.3277
   29.491	 -17.3036
   29.803	 -17.2799
   30.118	 -17.2565
   30.437	 -17.2338
   30.759	 -17.2118
   31.084	 -17.1908
   31.413	 -17.1710
   31.745	 -17.1527
   32.081	 -17.1357
   32.421	 -17.1202
   32.764	 -17.1062
   33.110	 -17.0937
   33.460	 -17.0828
   33.814	 -17.0734
   34.172	 -17.0654
   34.534	 -17.0586
   34.899	 -17.0526
   35.268	 -17.0473
   35.641	 -17.0427
   36.019	 -17.0386
   36.400	 -17.0349
   36.785	 -17.0315
   37.174	 -17.0284
   37.567	 -17.0253
   37.965	 -17.0222
   38.366	 -17.0190
   38.772	 -17.0154
   39.182	 -17.0114
   39.597	 -17.0068
   40.016	 -17.0013
   40.439	 -16.9949
   40.867	 -16.9875
   41.299	 -16.9790
   41.736	 -16.9694
   42.178	 -16.9587
   42.624	 -16.9467
   43.075	 -16.9334
   43.531	 -16.9187
   43.991	 -16.9027
   44.457	 -16.8854
   44.927	 -16.8669
   45.402	 -16.8472
   45.883	 -16.8263
   46.368	 -16.8043
   46.859	 -16.7813
   47.354	 -16.7574
   47.855	 -16.7328
   48.362	 -16.7077
   48.873	 -16.6824
   49.390	 -16.6572
   49.913	 -16.6322
   50.441	 -16.6077
   50.975	 -16.5845
   51.514	 -16.5632
   52.059	 -16.5443
   52.610	 -16.5281
   53.166	 -16.5146
   53.729	 -16.5039
   54.297	 -16.4957
   54.872	 -16.4902
   55.452	 -16.4869
   56.039	 -16.4859
   56.632	 -16.4867
   57.231	 -16.4888
   57.837	 -16.4916
   58.448	 -16.4945
   59.067	 -16.4975
   59.692	 -16.5006
   60.323	 -16.5038
   60.961	 -16.5070
   61.606	 -16.5103
   62.258	 -16.5137
   62.917	 -16.5171
   63.582	 -16.5206
   64.255	 -16.5242
   64.935	 -16.5278
   65.622	 -16.5315
   66.316	 -16.5353
   67.018	 -16.5392
   67.727	 -16.5431
   68.443	 -16.5471
   69.167	 -16.5512
   69.899	 -16.5553
   70.639	 -16.5594
   71.386	 -16.5635
   72.141	 -16.5674
   72.905	 -16.5710
   73.676	 -16.5743
   74.455	 -16.5772
   75.243	 -16.5796
   76.039	 -16.5817
   76.844	 -16.5834
   77.657	 -16.5846
   78.478	 -16.5855
   79.308	 -16.5860
   80.147	 -16.5862
   80.995	 -16.5862
   81.852	 -16.5861
   82.718	 -16.5860
   83.593	 -16.5859
   84.478	 -16.5857
   85.372	 -16.5855
   86.275	 -16.5853
   87.188	 -16.5850
   88.110	 -16.5847
   89.042	 -16.5843
   89.984	 -16.5839
   90.936	 -16.5834
   91.898	 -16.5828
   92.871	 -16.5820
   93.853	 -16.5810
   94.846	 -16.5797
   95.849	 -16.5781
   96.864	 -16.5761
   97.888	 -16.5738
   98.924	 -16.5712
   99.971	 -16.5682
  101.028	 -16.5650
  102.097	 -16.5616
  103.177	 -16.5581
  104.269	 -16.5546
  105.372	 -16.5511
  106.487	 -16.5478
  107.613	 -16.5447
  108.752	 -16.5419
  109.902	 -16.5393
  111.065	 -16.5369
  112.240	 -16.5348
  113.428	 -16.5330
  114.628	 -16.5315
  115.840	 -16.5302
  117.066	 -16.5292
  118.304	 -16.5285
  119.556	 -16.5280
  120.821	 -16.5279
  122.099	 -16.5280
  123.391	 -16.5284
  124.696	 -16.5292
  126.016	 -16.5302
  127.349	 -16.5316
  128.696	 -16.5333
  130.058	 -16.5353
  131.434	 -16.5375
  132.824	 -16.5398
  134.230	 -16.5423
  135.650	 -16.5447
  137.085	 -16.5471
  138.535	 -16.5494
  140.001	 -16.5516
  141.482	 -16.5536
  142.979	 -16.5553
  144.491	 -16.5567
  146.020	 -16.5579
  147.565	 -16.5588
  149.126	 -16.5594
  150.704	 -16.5599
  152.298	 -16.5603
  153.910	 -16.5606
  155.538	 -16.5610
  157.183	 -16.5616
  158.846	 -16.5624
  160.527	 -16.5637
  162.225	 -16.5655
  163.942	 -16.5680
  165.676	 -16.5716
  167.429	 -16.5762
  169.200	 -16.5821
  170.990	 -16.5894
  172.799	 -16.5980
  174.627	 -16.6082
  176.475	 -16.6198
  178.342	 -16.6331
  180.229	 -16.6477
  182.136	 -16.6638
  184.063	 -16.6809
  186.010	 -16.6988
  187.978	 -16.7173
  189.967	 -16.7361
  191.976	 -16.7553
  194.007	 -16.7747
  196.060	 -16.7943
  198.134	 -16.8139
  200.230	 -16.8336
  202.349	 -16.8534
  204.490	 -16.8735
  206.653	 -16.8941
  208.839	 -16.9154
  211.049	 -16.9376
  213.282	 -16.9608
  215.538	 -16.9851
  217.818	 -17.0107
  220.123	 -17.0377
  222.452	 -17.0662
  224.805	 -17.0964
  227.184	 -17.1283
  229.587	 -17.1620
  232.016	 -17.1976
  234.471	 -17.2352
  236.951	 -17.2748
  239.458	 -17.3165
  241.992	 -17.3601
  244.552	 -17.4055
  247.139	 -17.4524
  249.754	 -17.5004
  252.396	 -17.5491
  255.066	 -17.5981
  257.765	 -17.6466
  260.492	 -17.6942
  263.248	 -17.7399
  266.033	 -17.7831
  268.848	 -17.8229
  271.692	 -17.8591
  274.566	 -17.8915
  277.471	 -17.9202
  280.407	 -17.9453
  283.373	 -17.9669
  286.371	 -17.9848
  289.401	 -17.9983
  292.463	 -18.0073
  295.557	 -18.0115
  298.684	 -18.0111
  301.844	 -18.0063
  305.037	 -17.9972
  308.265	 -17.9837
  311.526	 -17.9659
  314.822	 -17.9438
  318.152	 -17.9181
  321.518	 -17.8896
  324.920	 -17.8593
  328.358	 -17.8284
  331.832	 -17.7972
  335.342	 -17.7660
  338.890	 -17.7350
  342.475	 -17.7041
  346.099	 -17.6736
  349.760	 -17.6433
  353.461	 -17.6134
  357.200	 -17.5839
  360.979	 -17.5546
  364.798	 -17.5257
  368.658	 -17.4972
  372.558	 -17.4690
  376.500	 -17.4414
  380.483	 -17.4144
  384.508	 -17.3882
  388.576	 -17.3627
  392.687	 -17.3375
  396.842	 -17.3123
  401.040	 -17.2873
  405.283	 -17.2624
  409.571	 -17.2379
  413.904	 -17.2140
  418.283	 -17.1905
  422.708	 -17.1672
  427.181	 -17.1442
  431.700	 -17.1222
  436.267	 -17.1017
  440.883	 -17.0836
  445.547	 -17.0682
  450.261	 -17.0554
  455.025	 -17.0454
  459.839	 -17.0384
  464.704	 -17.0349
  469.620	 -17.0356
  474.589	 -17.0412
  479.610	 -17.0525
  484.684	 -17.0703
  489.811	 -17.0942
  494.994	 -17.1237
  500.230	 -17.1596
  505.523	 -17.2026
  510.871	 -17.2534
  516.276	 -17.3118
  521.738	 -17.3773
  527.258	 -17.4491
  532.836	 -17.5260
  538.473	 -17.6068
  544.170	 -17.6905
  549.927	 -17.7763
  555.745	 -17.8636
  561.625	 -17.9504
  567.567	 -18.0338
  573.572	 -18.1104
  579.640	 -18.1786
  585.772	 -18.2370
  591.969	 -18.2846
  598.232	 -18.3210
  604.561	 -18.3463
  610.958	 -18.3606
  617.421	 -18.3637
  623.953	 -18.3564
  630.555	 -18.3405
  637.226	 -18.3188
  643.967	 -18.2927
  650.780	 -18.2639
  657.666	 -18.2345
  664.623	 -18.2050
  671.655	 -18.1751
  678.761	 -18.1432
  685.942	 -18.1095
  693.199	 -18.0748
  700.533	 -18.0404
  707.944	 -18.0059
  715.434	 -17.9736
  723.003	 -17.9435
  730.652	 -17.9157
  738.383	 -17.8916
  746.194	 -17.8686
  754.089	 -17.8473
  762.067	 -17.8290
  770.129	 -17.8137
  778.277	 -17.8001
  786.511	 -17.7882
  794.832	 -17.7776
  803.241	 -17.7696
  811.739	 -17.7662
  820.327	 -17.7679
  829.006	 -17.7793
  837.777	 -17.8017
  846.640	 -17.8361
  855.597	 -17.8848
  864.649	 -17.9498
  873.797	 -18.0324
  883.042	 -18.1324
  892.384	 -18.2495
  901.825	 -18.3803
  911.366	 -18.5221
  921.008	 -18.6708
  930.752	 -18.8223
  940.599	 -18.9731
  950.551	 -19.1199
  960.607	 -19.2612
  970.770	 -19.3921
  981.041	 -19.5123
  991.420	 -19.6220
 1001.909	 -19.7233
 1012.509	 -19.8188
 1023.221	 -19.9093
 1034.046	 -19.9973
 1044.986	 -20.0873
 1056.042	 -20.1808
 1067.214	 -20.2779
 1078.505	 -20.3794
 1089.915	 -20.4820
 1101.446	 -20.5843
 1113.099	 -20.6812
 1124.875	 -20.7681
 1136.776	 -20.8423
 1148.803	 -20.9027
 1160.957	 -20.9490
 1173.240	 -20.9813
 1185.652	 -20.9994
 1198.196	 -21.0007
 1210.873	 -20.9875
 1223.683	 -20.9593
 1236.630	 -20.9173
 1249.713	 -20.8622
 1262.934	 -20.7944
 1276.296	 -20.7167
 1289.799	 -20.6271
 1303.444	 -20.5258
 1317.234	 -20.4162
 1331.170	 -20.3031
 1345.254	 -20.1883
 1359.486	 -20.0720
 1373.869	 -19.9533
 1388.404	 -19.8315
 1403.093	 -19.7100
 1417.938	 -19.5901
 1432.939	 -19.4719
 1448.099	 -19.3579
 1463.420	 -19.2492
 1478.902	 -19.1446
 1494.548	 -19.0456
 1510.360	 -18.9533
 1526.339	 -18.8742
 1542.488	 -18.8118
 1558.807	 -18.7685
 1575.299	 -18.7435
 1591.965	 -18.7363
 1608.807	 -18.7445
 1625.828	 -18.7689
 1643.029	 -18.8061
 1660.412	 -18.8548
 1677.978	 -18.9181
 1695.731	 -18.9940
 1713.671	 -19.0825
 1731.801	 -19.1815
 1750.123	 -19.2872
 1768.639	 -19.3957
 1787.351	 -19.5042
 1806.260	 -19.6104
 1825.370	 -19.7121
 1844.682	 -19.8082
 1864.198	 -19.8952
 1883.921	 -19.9787
 1903.852	 -20.0506
 1923.995	 -20.1094
 1944.350	 -20.1586
 1964.920	 -20.1995
 1985.709	 -20.2414
 2006.717	 -20.2872
 2027.948	 -20.3406
 2049.403	 -20.4027
 2071.085	 -20.4779
 2092.996	 -20.5661
 2115.139	 -20.6690
 2137.517	 -20.7880
 2160.131	 -20.9192
 2182.985	 -21.0607
 2206.080	 -21.1996
 2229.420	 -21.3316
 2253.007	 -21.4560
 2276.843	 -21.5698
 2300.931	 -21.6722
 2325.274	 -21.7581
 2349.875	 -21.8220
 2374.736	 -21.8620
 2399.860	 -21.8818
 2425.250	 -21.8860
 2450.908	 -21.8867
 2476.838	 -21.8992
 2503.042	 -21.9319
 2529.524	 -21.9970
 2556.286	 -22.1021
 2583.330	 -22.2451
 2610.661	 -22.4212
 2638.281	 -22.6172
 2666.194	 -22.8261
 2694.401	 -23.0452
 2722.907	 -23.2816
 2751.715	 -23.5441
 2780.827	 -23.8386
 2810.247	 -24.1568
 2839.979	 -24.4727
 2870.025	 -24.7621
 2900.389	 -24.9891
 2931.074	 -25.1188
 2962.084	 -25.0995
 2993.422	 -24.9137
 3025.092	 -24.6014
 3057.097	 -24.2215
 3089.440	 -23.8134
 3122.125	 -23.3878
 3155.156	 -22.9255
 3188.537	 -22.4175
 3222.271	 -21.8875
 3256.362	 -21.3656
 3290.813	 -20.8735
 3325.629	 -20.4333
 3360.813	 -20.0502
 3396.369	 -19.7260
 3432.302	 -19.4483
 3468.615	 -19.1933
 3505.312	 -18.9408
 3542.397	 -18.6833
 3579.875	 -18.4253
 3617.749	 -18.1777
 3656.023	 -17.9457
 3694.703	 -17.7208
 3733.792	 -17.4898
 3773.294	 -17.2339
 3813.215	 -16.9367
 3853.557	 -16.5931
 3894.327	 -16.2041
 3935.528	 -15.7726
 3977.165	 -15.2956
 4019.242	 -14.7604
 4061.764	 -14.1609
 4104.737	 -13.4720
 4148.164	 -12.6843
 4192.050	 -11.7850
 4236.400	 -10.7958
 4281.221	 -9.7800
 4326.515	 -8.8001
 4372.288	 -7.9364
 4418.545	 -7.2424
 4465.292	 -6.7341
 4512.534	 -6.3991
 4560.275	 -6.2137
 4608.521	 -6.1552
 4657.278	 -6.2134
 4706.551	 -6.3967
 4756.345	 -6.7216
 4806.666	 -7.2111
 4857.519	 -7.8798
 4908.910	 -8.7132
 4960.845	 -9.6663
 5013.330	 -10.6349
 5066.369	 -11.5026
 5119.970	 -12.1988
 5174.138	 -12.7106
 5228.878	 -13.0583
 5284.198	 -13.2879
 5340.104	 -13.4429
 5396.601	 -13.5608
 5453.695	 -13.6787
 5511.394	 -13.8204
 5569.703	 -13.9983
 5628.628	 -14.2199
 5688.178	 -14.4873
 5748.357	 -14.7981
 5809.173	 -15.1428
 5870.632	 -15.5058
 5932.742	 -15.8729
 5995.509	 -16.2343
 6058.939	 -16.5822
 6123.041	 -16.9087
 6187.821	 -17.2088
 6253.287	 -17.4751
 6319.445	 -17.7051
 6386.303	 -17.8918
 6453.868	 -18.0276
 6522.148	 -18.1125
 6591.150	 -18.1589
 6660.883	 -18.1901
 6731.353	 -18.2255
 6802.569	 -18.2682
 6874.538	 -18.3111
 6947.269	 -18.3471
 7020.769	 -18.3562
 7095.046	 -18.3068
 7170.110	 -18.1617
 7245.968	 -17.9126
 7322.628	 -17.5628
 7400.100	 -17.1557
 7478.390	 -16.7522
 7557.510	 -16.4038
 7637.466	 -16.1460
 7718.268	 -15.9922
 7799.925	 -15.9416
 7882.446	 -15.9943
 7965.840	 -16.1603
 8050.116	 -16.4638
 8135.284	 -16.9308
 8221.354	 -17.5835
 8308.333	 -18.4196
 8396.232	 -19.4127
 8485.063	 -20.4615
 8574.832	 -21.4099
 8665.551	 -22.1067
 8757.230	 -22.4644
 8849.879	 -22.5056
 8943.509	 -22.3272
 9038.128	 -22.0373
 9133.749	 -21.7253
 9230.382	 -21.4528
 9328.036	 -21.2557
 9426.725	 -21.1549
 9526.456	 -21.1582
 9627.243	 -21.2633
 9729.097	 -21.4540
 9832.028	 -21.7044
 9936.048	 -22.0026
10041.169	 -22.3437
10147.401	 -22.7241
10254.758	 -23.1449
10363.250	 -23.6027
10472.891	 -24.0846
10583.690	 -24.5844
10695.663	 -25.1070
10808.820	 -25.6670
10923.175	 -26.2750
11038.738	 -26.9151
11155.525	 -27.5247
11273.547	 -27.9916
11392.818	 -28.1812
11513.351	 -28.0495
11635.159	 -27.6594
11758.256	 -27.1071
11882.654	 -26.4620
12008.370	 -25.7719
12135.415	 -25.0502
12263.804	 -24.3117
12393.552	 -23.5605
12524.672	 -22.7917
12657.179	 -22.0304
12791.089	 -21.2930
12926.415	 -20.6169
13063.172	 -20.0360
13201.377	 -19.5598
13341.044	 -19.1923
13482.188	 -18.9261
13624.826	 -18.7543
13768.973	 -18.6756
13914.645	 -18.6967
14061.857	 -18.8298
14210.628	 -19.0867
14360.973	 -19.4742
14512.907	 -19.9847
14666.449	 -20.6119
14821.616	 -21.3370
14978.425	 -22.1296
15136.893	 -22.9595
15297.036	 -23.7587
15458.875	 -24.4481
15622.425	 -24.9529
15787.706	 -25.2349
15954.735	 -25.3254
16123.532	 -25.2851
16294.114	 -25.1734
16466.502	 -25.0251
16640.713	 -24.8545
16816.766	 -24.6851
16994.682	 -24.5520
17174.482	 -24.4936
17356.182	 -24.5371
17539.807	 -24.7020
17725.373	 -24.9850
17912.902	 -25.3606
18102.414	 -25.7980
18293.934	 -26.2805
18487.479	 -26.8149
18683.070	 -27.4230
18880.732	 -28.1342
19080.484	 -28.9740
19282.350	 -29.9691
19486.352	 -31.1245
19692.512	 -32.4102
19900.854	 -33.7185
20111.398	 -34.9142
20324.172	 -35.8086
20539.195	 -36.4143
20756.494	 -36.7639
20976.092	 -36.9979
21198.014	 -37.2964
21422.281	 -37.8281
