Smoothed Frequency Response
Resolution = 1/6 octave
Numpoints = 720
SamplingRate = 44100 Hz
Frequency(Hz)   Magnitude(dB)
   11.082	 -48.9545
   11.199	 -48.8648
   11.318	 -48.7729
   11.438	 -48.6771
   11.559	 -48.5700
   11.681	 -48.4412
   11.804	 -48.2900
   11.929	 -48.1079
   12.056	 -47.9244
   12.183	 -47.7397
   12.312	 -47.5538
   12.442	 -47.3666
   12.574	 -47.1782
   12.707	 -46.9887
   12.841	 -46.7980
   12.977	 -46.6062
   13.114	 -46.4134
   13.253	 -46.2195
   13.393	 -46.0246
   13.535	 -45.8288
   13.678	 -45.6321
   13.823	 -45.4345
   13.969	 -45.2361
   14.117	 -45.0370
   14.266	 -44.8372
   14.417	 -44.6367
   14.570	 -44.4356
   14.724	 -44.2341
   14.880	 -44.0321
   15.037	 -43.8297
   15.196	 -43.6270
   15.357	 -43.4241
   15.520	 -43.2211
   15.684	 -43.0180
   15.850	 -42.8150
   16.017	 -42.6121
   16.187	 -42.4095
   16.358	 -42.2072
   16.531	 -42.0054
   16.706	 -41.8042
   16.883	 -41.6036
   17.061	 -41.4039
   17.242	 -41.2051
   17.424	 -41.0074
   17.609	 -40.8110
   17.795	 -40.6160
   17.983	 -40.4225
   18.174	 -40.2307
   18.366	 -40.0407
   18.560	 -39.8529
   18.756	 -39.6673
   18.955	 -39.4841
   19.155	 -39.3035
   19.358	 -39.1258
   19.563	 -38.9511
   19.770	 -38.7798
   19.979	 -38.6119
   20.190	 -38.4478
   20.404	 -38.2876
   20.620	 -38.1314
   20.838	 -37.9789
   21.058	 -37.8298
   21.281	 -37.6837
   21.506	 -37.5403
   21.734	 -37.3992
   21.964	 -37.2600
   22.196	 -37.1222
   22.431	 -36.9856
   22.668	 -36.8496
   22.908	 -36.7141
   23.151	 -36.5788
   23.396	 -36.4437
   23.643	 -36.3088
   23.893	 -36.1741
   24.146	 -36.0398
   24.401	 -35.9058
   24.660	 -35.7721
   24.920	 -35.6389
   25.184	 -35.5062
   25.451	 -35.3739
   25.720	 -35.2422
   25.992	 -35.1111
   26.267	 -34.9807
   26.545	 -34.8509
   26.826	 -34.7219
   27.109	 -34.5937
   27.396	 -34.4664
   27.686	 -34.3399
   27.979	 -34.2145
   28.275	 -34.0900
   28.574	 -33.9667
   28.876	 -33.8445
   29.182	 -33.7235
   29.491	 -33.6038
   29.803	 -33.4855
   30.118	 -33.3685
   30.437	 -33.2532
   30.759	 -33.1397
   31.084	 -33.0284
   31.413	 -32.9191
   31.745	 -32.8118
   32.081	 -32.7064
   32.421	 -32.6026
   32.764	 -32.5002
   33.110	 -32.3990
   33.460	 -32.2988
   33.814	 -32.1992
   34.172	 -32.1000
   34.534	 -32.0007
   34.899	 -31.9010
   35.268	 -31.8007
   35.641	 -31.6997
   36.019	 -31.5980
   36.400	 -31.4955
   36.785	 -31.3921
   37.174	 -31.2877
   37.567	 -31.1823
   37.965	 -31.0758
   38.366	 -30.9680
   38.772	 -30.8589
   39.182	 -30.7484
   39.597	 -30.6363
   40.016	 -30.5225
   40.439	 -30.4069
   40.867	 -30.2897
   41.299	 -30.1706
   41.736	 -30.0499
   42.178	 -29.9274
   42.624	 -29.8031
   43.075	 -29.6769
   43.531	 -29.5488
   43.991	 -29.4187
   44.457	 -29.2867
   44.927	 -29.1527
   45.402	 -29.0167
   45.883	 -28.8787
   46.368	 -28.7388
   46.859	 -28.5968
   47.354	 -28.4528
   47.855	 -28.3071
   48.362	 -28.1598
   48.873	 -28.0110
   49.390	 -27.8608
   49.913	 -27.7095
   50.441	 -27.5572
   50.975	 -27.4060
   51.514	 -27.2580
   52.059	 -27.1150
   52.610	 -26.9779
   53.166	 -26.8470
   53.729	 -26.7222
   54.297	 -26.6032
   54.872	 -26.4901
   55.452	 -26.3827
   56.039	 -26.2808
   56.632	 -26.1835
   57.231	 -26.0896
   57.837	 -25.9975
   58.448	 -25.9057
   59.067	 -25.8138
   59.692	 -25.7218
   60.323	 -25.6298
   60.961	 -25.5377
   61.606	 -25.4452
   62.258	 -25.3521
   62.917	 -25.2584
   63.582	 -25.1640
   64.255	 -25.0689
   64.935	 -24.9731
   65.622	 -24.8767
   66.316	 -24.7797
   67.018	 -24.6821
   67.727	 -24.5840
   68.443	 -24.4856
   69.167	 -24.3871
   69.899	 -24.2886
   70.639	 -24.1904
   71.386	 -24.0941
   72.141	 -24.0015
   72.905	 -23.9143
   73.676	 -23.8335
   74.455	 -23.7593
   75.243	 -23.6919
   76.039	 -23.6314
   76.844	 -23.5781
   77.657	 -23.5319
   78.478	 -23.4930
   79.308	 -23.4609
   80.147	 -23.4346
   80.995	 -23.4128
   81.852	 -23.3939
   82.718	 -23.3777
   83.593	 -23.3643
   84.478	 -23.3535
   85.372	 -23.3452
   86.275	 -23.3392
   87.188	 -23.3354
   88.110	 -23.3335
   89.042	 -23.3331
   89.984	 -23.3338
   90.936	 -23.3353
   91.898	 -23.3371
   92.871	 -23.3388
   93.853	 -23.3402
   94.846	 -23.3410
   95.849	 -23.3409
   96.864	 -23.3400
   97.888	 -23.3381
   98.924	 -23.3353
   99.971	 -23.3318
  101.028	 -23.3277
  102.097	 -23.3236
  103.177	 -23.3197
  104.269	 -23.3164
  105.372	 -23.3139
  106.487	 -23.3124
  107.613	 -23.3119
  108.752	 -23.3124
  109.902	 -23.3141
  111.065	 -23.3169
  112.240	 -23.3207
  113.428	 -23.3253
  114.628	 -23.3305
  115.840	 -23.3361
  117.066	 -23.3419
  118.304	 -23.3479
  119.556	 -23.3540
  120.821	 -23.3603
  122.099	 -23.3669
  123.391	 -23.3737
  124.696	 -23.3809
  126.016	 -23.3885
  127.349	 -23.3966
  128.696	 -23.4053
  130.058	 -23.4147
  131.434	 -23.4247
  132.824	 -23.4354
  134.230	 -23.4469
  135.650	 -23.4593
  137.085	 -23.4725
  138.535	 -23.4867
  140.001	 -23.5015
  141.482	 -23.5169
  142.979	 -23.5324
  144.491	 -23.5477
  146.020	 -23.5624
  147.565	 -23.5762
  149.126	 -23.5888
  150.704	 -23.5997
  152.298	 -23.6086
  153.910	 -23.6151
  155.538	 -23.6188
  157.183	 -23.6194
  158.846	 -23.6171
  160.527	 -23.6119
  162.225	 -23.6043
  163.942	 -23.5947
  165.676	 -23.5836
  167.429	 -23.5712
  169.200	 -23.5578
  170.990	 -23.5437
  172.799	 -23.5290
  174.627	 -23.5142
  176.475	 -23.4994
  178.342	 -23.4846
  180.229	 -23.4698
  182.136	 -23.4548
  184.063	 -23.4396
  186.010	 -23.4240
  187.978	 -23.4080
  189.967	 -23.3917
  191.976	 -23.3753
  194.007	 -23.3588
  196.060	 -23.3423
  198.134	 -23.3258
  200.230	 -23.3095
  202.349	 -23.2935
  204.490	 -23.2777
  206.653	 -23.2622
  208.839	 -23.2471
  211.049	 -23.2323
  213.282	 -23.2178
  215.538	 -23.2037
  217.818	 -23.1902
  220.123	 -23.1771
  222.452	 -23.1646
  224.805	 -23.1526
  227.184	 -23.1412
  229.587	 -23.1302
  232.016	 -23.1197
  234.471	 -23.1097
  236.951	 -23.1000
  239.458	 -23.0907
  241.992	 -23.0818
  244.552	 -23.0730
  247.139	 -23.0645
  249.754	 -23.0561
  252.396	 -23.0479
  255.066	 -23.0398
  257.765	 -23.0321
  260.492	 -23.0247
  263.248	 -23.0176
  266.033	 -23.0108
  268.848	 -23.0042
  271.692	 -22.9977
  274.566	 -22.9914
  277.471	 -22.9852
  280.407	 -22.9792
  283.373	 -22.9733
  286.371	 -22.9674
  289.401	 -22.9612
  292.463	 -22.9548
  295.557	 -22.9482
  298.684	 -22.9412
  301.844	 -22.9341
  305.037	 -22.9267
  308.265	 -22.9192
  311.526	 -22.9114
  314.822	 -22.9034
  318.152	 -22.8953
  321.518	 -22.8871
  324.920	 -22.8791
  328.358	 -22.8714
  331.832	 -22.8643
  335.342	 -22.8579
  338.890	 -22.8526
  342.475	 -22.8486
  346.099	 -22.8462
  349.760	 -22.8457
  353.461	 -22.8474
  357.200	 -22.8512
  360.979	 -22.8570
  364.798	 -22.8649
  368.658	 -22.8748
  372.558	 -22.8871
  376.500	 -22.9019
  380.483	 -22.9196
  384.508	 -22.9404
  388.576	 -22.9650
  392.687	 -22.9942
  396.842	 -23.0289
  401.040	 -23.0696
  405.283	 -23.1170
  409.571	 -23.1712
  413.904	 -23.2321
  418.283	 -23.2991
  422.708	 -23.3712
  427.181	 -23.4470
  431.700	 -23.5247
  436.267	 -23.6022
  440.883	 -23.6775
  445.547	 -23.7490
  450.261	 -23.8162
  455.025	 -23.8792
  459.839	 -23.9397
  464.704	 -23.9998
  469.620	 -24.0629
  474.589	 -24.1322
  479.610	 -24.2100
  484.684	 -24.2977
  489.811	 -24.3950
  494.994	 -24.4995
  500.230	 -24.6075
  505.523	 -24.7140
  510.871	 -24.8134
  516.276	 -24.8995
  521.738	 -24.9664
  527.258	 -25.0082
  532.836	 -25.0210
  538.473	 -25.0025
  544.170	 -24.9527
  549.927	 -24.8733
  555.745	 -24.7679
  561.625	 -24.6416
  567.567	 -24.5002
  573.572	 -24.3494
  579.640	 -24.1946
  585.772	 -24.0406
  591.969	 -23.8912
  598.232	 -23.7496
  604.561	 -23.6183
  610.958	 -23.4992
  617.421	 -23.3938
  623.953	 -23.3021
  630.555	 -23.2235
  637.226	 -23.1565
  643.967	 -23.0984
  650.780	 -23.0465
  657.666	 -22.9984
  664.623	 -22.9516
  671.655	 -22.9052
  678.761	 -22.8594
  685.942	 -22.8149
  693.199	 -22.7727
  700.533	 -22.7341
  707.944	 -22.7002
  715.434	 -22.6725
  723.003	 -22.6518
  730.652	 -22.6385
  738.383	 -22.6333
  746.194	 -22.6364
  754.089	 -22.6468
  762.067	 -22.6636
  770.129	 -22.6852
  778.277	 -22.7107
  786.511	 -22.7394
  794.832	 -22.7720
  803.241	 -22.8092
  811.739	 -22.8517
  820.327	 -22.8997
  829.006	 -22.9528
  837.777	 -23.0081
  846.640	 -23.0631
  855.597	 -23.1148
  864.649	 -23.1619
  873.797	 -23.2032
  883.042	 -23.2389
  892.384	 -23.2693
  901.825	 -23.2947
  911.366	 -23.3167
  921.008	 -23.3357
  930.752	 -23.3572
  940.599	 -23.3878
  950.551	 -23.4349
  960.607	 -23.5090
  970.770	 -23.6186
  981.041	 -23.7649
  991.420	 -23.9429
 1001.909	 -24.1431
 1012.509	 -24.3568
 1023.221	 -24.5789
 1034.046	 -24.8019
 1044.986	 -25.0116
 1056.042	 -25.1951
 1067.214	 -25.3365
 1078.505	 -25.4292
 1089.915	 -25.4759
 1101.446	 -25.4845
 1113.099	 -25.4703
 1124.875	 -25.4438
 1136.776	 -25.4026
 1148.803	 -25.3409
 1160.957	 -25.2606
 1173.240	 -25.1710
 1185.652	 -25.0802
 1198.196	 -24.9907
 1210.873	 -24.9098
 1223.683	 -24.8491
 1236.630	 -24.8151
 1249.713	 -24.8119
 1262.934	 -24.8396
 1276.296	 -24.8969
 1289.799	 -24.9868
 1303.444	 -25.1093
 1317.234	 -25.2571
 1331.170	 -25.4260
 1345.254	 -25.5995
 1359.486	 -25.7575
 1373.869	 -25.8724
 1388.404	 -25.9303
 1403.093	 -25.9486
 1417.938	 -25.9548
 1432.939	 -25.9599
 1448.099	 -25.9671
 1463.420	 -25.9692
 1478.902	 -25.9692
 1494.548	 -25.9839
 1510.360	 -26.0239
 1526.339	 -26.0706
 1542.488	 -26.1182
 1558.807	 -26.1448
 1575.299	 -26.1512
 1591.965	 -26.1253
 1608.807	 -26.0538
 1625.828	 -25.9455
 1643.029	 -25.8068
 1660.412	 -25.6303
 1677.978	 -25.4198
 1695.731	 -25.1741
 1713.671	 -24.9190
 1731.801	 -24.6892
 1750.123	 -24.4924
 1768.639	 -24.3184
 1787.351	 -24.1655
 1806.260	 -24.0296
 1825.370	 -23.9139
 1844.682	 -23.8180
 1864.198	 -23.7411
 1883.921	 -23.6867
 1903.852	 -23.6526
 1923.995	 -23.6215
 1944.350	 -23.5802
 1964.920	 -23.5185
 1985.709	 -23.4389
 2006.717	 -23.3676
 2027.948	 -23.3287
 2049.403	 -23.3458
 2071.085	 -23.4197
 2092.996	 -23.5260
 2115.139	 -23.6399
 2137.517	 -23.7442
 2160.131	 -23.8440
 2182.985	 -23.9518
 2206.080	 -24.0647
 2229.420	 -24.1738
 2253.007	 -24.2757
 2276.843	 -24.3696
 2300.931	 -24.4438
 2325.274	 -24.4779
 2349.875	 -24.4792
 2374.736	 -24.4615
 2399.860	 -24.4384
 2425.250	 -24.4029
 2450.908	 -24.3576
 2476.838	 -24.3044
 2503.042	 -24.2405
 2529.524	 -24.1556
 2556.286	 -24.0295
 2583.330	 -23.8731
 2610.661	 -23.7329
 2638.281	 -23.6270
 2666.194	 -23.5576
 2694.401	 -23.4955
 2722.907	 -23.4311
 2751.715	 -23.3621
 2780.827	 -23.2872
 2810.247	 -23.1886
 2839.979	 -23.0607
 2870.025	 -22.8933
 2900.389	 -22.6882
 2931.074	 -22.4575
 2962.084	 -22.2081
 2993.422	 -21.9466
 3025.092	 -21.6849
 3057.097	 -21.4138
 3089.440	 -21.1328
 3122.125	 -20.8487
 3155.156	 -20.5591
 3188.537	 -20.2677
 3222.271	 -19.9966
 3256.362	 -19.7419
 3290.813	 -19.4983
 3325.629	 -19.2604
 3360.813	 -19.0242
 3396.369	 -18.7999
 3432.302	 -18.5931
 3468.615	 -18.4093
 3505.312	 -18.2502
 3542.397	 -18.1112
 3579.875	 -17.9835
 3617.749	 -17.8590
 3656.023	 -17.7205
 3694.703	 -17.5489
 3733.792	 -17.3277
 3773.294	 -17.0436
 3813.215	 -16.7069
 3853.557	 -16.3437
 3894.327	 -15.9763
 3935.528	 -15.6011
 3977.165	 -15.2018
 4019.242	 -14.7532
 4061.764	 -14.2502
 4104.737	 -13.6934
 4148.164	 -13.0877
 4192.050	 -12.4104
 4236.400	 -11.6195
 4281.221	 -10.7532
 4326.515	 -9.8823
 4372.288	 -9.0921
 4418.545	 -8.4060
 4465.292	 -7.8171
 4512.534	 -7.3193
 4560.275	 -6.9361
 4608.521	 -6.6861
 4657.278	 -6.5660
 4706.551	 -6.5744
 4756.345	 -6.7080
 4806.666	 -6.9686
 4857.519	 -7.3564
 4908.910	 -7.8556
 4960.845	 -8.4641
 5013.330	 -9.1871
 5066.369	 -10.0404
 5119.970	 -10.9887
 5174.138	 -11.9480
 5228.878	 -12.8187
 5284.198	 -13.6017
 5340.104	 -14.3729
 5396.601	 -15.1075
 5453.695	 -15.7635
 5511.394	 -16.3102
 5569.703	 -16.7525
 5628.628	 -17.1265
 5688.178	 -17.4771
 5748.357	 -17.8247
 5809.173	 -18.1584
 5870.632	 -18.4848
 5932.742	 -18.8254
 5995.509	 -19.2042
 6058.939	 -19.6496
 6123.041	 -20.1642
 6187.821	 -20.7433
 6253.287	 -21.3637
 6319.445	 -21.9850
 6386.303	 -22.5793
 6453.868	 -23.1357
 6522.148	 -23.6592
 6591.150	 -24.1493
 6660.883	 -24.6169
 6731.353	 -25.0758
 6802.569	 -25.5267
 6874.538	 -25.9801
 6947.269	 -26.4461
 7020.769	 -26.9285
 7095.046	 -27.4231
 7170.110	 -27.9283
 7245.968	 -28.4339
 7322.628	 -28.8900
 7400.100	 -29.2297
 7478.390	 -29.3962
 7557.510	 -29.3854
 7637.466	 -29.2136
 7718.268	 -28.8851
 7799.925	 -28.4279
 7882.446	 -27.8895
 7965.840	 -27.3369
 8050.116	 -26.8227
 8135.284	 -26.3756
 8221.354	 -26.0051
 8308.333	 -25.7034
 8396.232	 -25.4581
 8485.063	 -25.2492
 8574.832	 -25.0479
 8665.551	 -24.8251
 8757.230	 -24.5637
 8849.879	 -24.2548
 8943.509	 -23.9094
 9038.128	 -23.5581
 9133.749	 -23.2392
 9230.382	 -22.9816
 9328.036	 -22.7993
 9426.725	 -22.6927
 9526.456	 -22.6565
 9627.243	 -22.6873
 9729.097	 -22.7873
 9832.028	 -22.9647
 9936.048	 -23.2263
10041.169	 -23.5703
10147.401	 -23.9831
10254.758	 -24.4337
10363.250	 -24.8831
10472.891	 -25.2979
10583.690	 -25.6639
10695.663	 -25.9831
10808.820	 -26.2610
10923.175	 -26.5010
11038.738	 -26.7054
11155.525	 -26.8788
11273.547	 -27.0244
11392.818	 -27.1462
11513.351	 -27.2487
11635.159	 -27.3360
11758.256	 -27.4117
11882.654	 -27.4737
12008.370	 -27.5179
12135.415	 -27.5392
12263.804	 -27.5348
12393.552	 -27.5095
12524.672	 -27.4747
12657.179	 -27.4441
12791.089	 -27.4311
12926.415	 -27.4441
13063.172	 -27.4825
13201.377	 -27.5461
13341.044	 -27.6422
13482.188	 -27.7890
13624.826	 -28.0121
13768.973	 -28.3292
13914.645	 -28.7399
14061.857	 -29.2201
14210.628	 -29.7226
14360.973	 -30.1997
14512.907	 -30.6157
14666.449	 -30.9394
14821.616	 -31.1430
14978.425	 -31.2199
15136.893	 -31.2082
15297.036	 -31.1603
15458.875	 -31.1087
15622.425	 -31.0542
15787.706	 -30.9866
15954.735	 -30.9129
16123.532	 -30.8552
16294.114	 -30.8413
16466.502	 -30.8917
16640.713	 -31.0166
16816.766	 -31.2049
16994.682	 -31.4248
17174.482	 -31.6300
17356.182	 -31.7998
17539.807	 -31.9701
17725.373	 -32.2080
17912.902	 -32.5709
18102.414	 -33.0855
18293.934	 -33.7494
18487.479	 -34.5703
18683.070	 -35.5666
18880.732	 -36.7432
19080.484	 -38.0763
19282.350	 -39.5519
19486.352	 -41.1734
19692.512	 -42.9691
19900.854	 -44.9685
20111.398	 -47.2028
20324.172	 -49.5223
20539.195	 -58.8111
20756.494	 -60.8605
20976.092	 -62.6167
21198.014	 -64.1049
21422.281	 -65.4554
