Smoothed Frequency Response
Resolution = 1/6 octave
Numpoints = 720
SamplingRate = 44100 Hz
Frequency(Hz)   Magnitude(dB)
   11.082	 -36.0179
   11.199	 -35.9619
   11.318	 -35.9048
   11.438	 -35.8453
   11.559	 -35.7787
   11.681	 -35.6982
   11.804	 -35.6032
   11.929	 -35.4881
   12.056	 -35.3721
   12.183	 -35.2553
   12.312	 -35.1378
   12.442	 -35.0196
   12.574	 -34.9007
   12.707	 -34.7811
   12.841	 -34.6608
   12.977	 -34.5400
   13.114	 -34.4185
   13.253	 -34.2965
   13.393	 -34.1740
   13.535	 -34.0509
   13.678	 -33.9275
   13.823	 -33.8036
   13.969	 -33.6794
   14.117	 -33.5549
   14.266	 -33.4301
   14.417	 -33.3051
   14.570	 -33.1800
   14.724	 -33.0548
   14.880	 -32.9295
   15.037	 -32.8043
   15.196	 -32.6791
   15.357	 -32.5542
   15.520	 -32.4294
   15.684	 -32.3050
   15.850	 -32.1810
   16.017	 -32.0575
   16.187	 -31.9345
   16.358	 -31.8122
   16.531	 -31.6906
   16.706	 -31.5699
   16.883	 -31.4502
   17.061	 -31.3316
   17.242	 -31.2141
   17.424	 -31.0980
   17.609	 -30.9833
   17.795	 -30.8701
   17.983	 -30.7587
   18.174	 -30.6491
   18.366	 -30.5415
   18.560	 -30.4361
   18.756	 -30.3329
   18.955	 -30.2323
   19.155	 -30.1343
   19.358	 -30.0391
   19.563	 -29.9470
   19.770	 -29.8581
   19.979	 -29.7726
   20.190	 -29.6907
   20.404	 -29.6126
   20.620	 -29.5384
   20.838	 -29.4678
   21.058	 -29.4005
   21.281	 -29.3364
   21.506	 -29.2750
   21.734	 -29.2160
   21.964	 -29.1591
   22.196	 -29.1039
   22.431	 -29.0499
   22.668	 -28.9968
   22.908	 -28.9444
   23.151	 -28.8924
   23.396	 -28.8408
   23.643	 -28.7895
   23.893	 -28.7387
   24.146	 -28.6882
   24.401	 -28.6383
   24.660	 -28.5888
   24.920	 -28.5399
   25.184	 -28.4915
   25.451	 -28.4436
   25.720	 -28.3964
   25.992	 -28.3498
   26.267	 -28.3038
   26.545	 -28.2585
   26.826	 -28.2140
   27.109	 -28.1702
   27.396	 -28.1271
   27.686	 -28.0849
   27.979	 -28.0436
   28.275	 -28.0032
   28.574	 -27.9637
   28.876	 -27.9251
   29.182	 -27.8876
   29.491	 -27.8511
   29.803	 -27.8157
   30.118	 -27.7815
   30.437	 -27.7484
   30.759	 -27.7163
   31.084	 -27.6852
   31.413	 -27.6549
   31.745	 -27.6252
   32.081	 -27.5962
   32.421	 -27.5677
   32.764	 -27.5396
   33.110	 -27.5119
   33.460	 -27.4845
   33.814	 -27.4573
   34.172	 -27.4302
   34.534	 -27.4034
   34.899	 -27.3769
   35.268	 -27.3507
   35.641	 -27.3249
   36.019	 -27.2995
   36.400	 -27.2746
   36.785	 -27.2501
   37.174	 -27.2260
   37.567	 -27.2024
   37.965	 -27.1793
   38.366	 -27.1568
   38.772	 -27.1348
   39.182	 -27.1133
   39.597	 -27.0925
   40.016	 -27.0722
   40.439	 -27.0526
   40.867	 -27.0337
   41.299	 -27.0154
   41.736	 -26.9978
   42.178	 -26.9809
   42.624	 -26.9645
   43.075	 -26.9487
   43.531	 -26.9333
   43.991	 -26.9184
   44.457	 -26.9040
   44.927	 -26.8899
   45.402	 -26.8761
   45.883	 -26.8626
   46.368	 -26.8493
   46.859	 -26.8362
   47.354	 -26.8234
   47.855	 -26.8108
   48.362	 -26.7985
   48.873	 -26.7864
   49.390	 -26.7746
   49.913	 -26.7631
   50.441	 -26.7520
   50.975	 -26.7411
   51.514	 -26.7305
   52.059	 -26.7201
   52.610	 -26.7099
   53.166	 -26.7000
   53.729	 -26.6902
   54.297	 -26.6806
   54.872	 -26.6712
   55.452	 -26.6619
   56.039	 -26.6527
   56.632	 -26.6437
   57.231	 -26.6349
   57.837	 -26.6261
   58.448	 -26.6176
   59.067	 -26.6093
   59.692	 -26.6012
   60.323	 -26.5933
   60.961	 -26.5856
   61.606	 -26.5782
   62.258	 -26.5709
   62.917	 -26.5638
   63.582	 -26.5568
   64.255	 -26.5501
   64.935	 -26.5435
   65.622	 -26.5371
   66.316	 -26.5309
   67.018	 -26.5250
   67.727	 -26.5192
   68.443	 -26.5138
   69.167	 -26.5086
   69.899	 -26.5037
   70.639	 -26.4992
   71.386	 -26.4950
   72.141	 -26.4914
   72.905	 -26.4883
   73.676	 -26.4859
   74.455	 -26.4840
   75.243	 -26.4827
   76.039	 -26.4820
   76.844	 -26.4818
   77.657	 -26.4823
   78.478	 -26.4834
   79.308	 -26.4850
   80.147	 -26.4871
   80.995	 -26.4897
   81.852	 -26.4926
   82.718	 -26.4958
   83.593	 -26.4993
   84.478	 -26.5032
   85.372	 -26.5073
   86.275	 -26.5118
   87.188	 -26.5165
   88.110	 -26.5216
   89.042	 -26.5269
   89.984	 -26.5326
   90.936	 -26.5385
   91.898	 -26.5449
   92.871	 -26.5517
   93.853	 -26.5591
   94.846	 -26.5669
   95.849	 -26.5754
   96.864	 -26.5844
   97.888	 -26.5938
   98.924	 -26.6038
   99.971	 -26.6142
  101.028	 -26.6250
  102.097	 -26.6361
  103.177	 -26.6475
  104.269	 -26.6590
  105.372	 -26.6706
  106.487	 -26.6823
  107.613	 -26.6939
  108.752	 -26.7056
  109.902	 -26.7173
  111.065	 -26.7290
  112.240	 -26.7407
  113.428	 -26.7524
  114.628	 -26.7641
  115.840	 -26.7759
  117.066	 -26.7877
  118.304	 -26.7995
  119.556	 -26.8114
  120.821	 -26.8233
  122.099	 -26.8353
  123.391	 -26.8474
  124.696	 -26.8597
  126.016	 -26.8722
  127.349	 -26.8850
  128.696	 -26.8980
  130.058	 -26.9113
  131.434	 -26.9250
  132.824	 -26.9390
  134.230	 -26.9535
  135.650	 -26.9684
  137.085	 -26.9837
  138.535	 -26.9993
  140.001	 -27.0154
  141.482	 -27.0317
  142.979	 -27.0484
  144.491	 -27.0654
  146.020	 -27.0826
  147.565	 -27.1001
  149.126	 -27.1177
  150.704	 -27.1356
  152.298	 -27.1535
  153.910	 -27.1716
  155.538	 -27.1898
  157.183	 -27.2081
  158.846	 -27.2266
  160.527	 -27.2452
  162.225	 -27.2639
  163.942	 -27.2827
  165.676	 -27.3018
  167.429	 -27.3209
  169.200	 -27.3403
  170.990	 -27.3598
  172.799	 -27.3795
  174.627	 -27.3993
  176.475	 -27.4192
  178.342	 -27.4390
  180.229	 -27.4588
  182.136	 -27.4786
  184.063	 -27.4983
  186.010	 -27.5181
  187.978	 -27.5379
  189.967	 -27.5578
  191.976	 -27.5778
  194.007	 -27.5978
  196.060	 -27.6180
  198.134	 -27.6383
  200.230	 -27.6587
  202.349	 -27.6792
  204.490	 -27.6996
  206.653	 -27.7201
  208.839	 -27.7403
  211.049	 -27.7604
  213.282	 -27.7802
  215.538	 -27.7999
  217.818	 -27.8193
  220.123	 -27.8386
  222.452	 -27.8579
  224.805	 -27.8771
  227.184	 -27.8963
  229.587	 -27.9154
  232.016	 -27.9346
  234.471	 -27.9538
  236.951	 -27.9731
  239.458	 -27.9923
  241.992	 -28.0115
  244.552	 -28.0307
  247.139	 -28.0498
  249.754	 -28.0688
  252.396	 -28.0877
  255.066	 -28.1065
  257.765	 -28.1251
  260.492	 -28.1435
  263.248	 -28.1618
  266.033	 -28.1800
  268.848	 -28.1979
  271.692	 -28.2157
  274.566	 -28.2333
  277.471	 -28.2508
  280.407	 -28.2682
  283.373	 -28.2855
  286.371	 -28.3026
  289.401	 -28.3196
  292.463	 -28.3363
  295.557	 -28.3528
  298.684	 -28.3692
  301.844	 -28.3854
  305.037	 -28.4016
  308.265	 -28.4176
  311.526	 -28.4335
  314.822	 -28.4491
  318.152	 -28.4645
  321.518	 -28.4798
  324.920	 -28.4949
  328.358	 -28.5099
  331.832	 -28.5246
  335.342	 -28.5390
  338.890	 -28.5531
  342.475	 -28.5670
  346.099	 -28.5806
  349.760	 -28.5941
  353.461	 -28.6072
  357.200	 -28.6201
  360.979	 -28.6326
  364.798	 -28.6449
  368.658	 -28.6567
  372.558	 -28.6678
  376.500	 -28.6783
  380.483	 -28.6883
  384.508	 -28.6980
  388.576	 -28.7075
  392.687	 -28.7169
  396.842	 -28.7258
  401.040	 -28.7343
  405.283	 -28.7422
  409.571	 -28.7494
  413.904	 -28.7562
  418.283	 -28.7627
  422.708	 -28.7687
  427.181	 -28.7741
  431.700	 -28.7789
  436.267	 -28.7833
  440.883	 -28.7876
  445.547	 -28.7916
  450.261	 -28.7956
  455.025	 -28.7997
  459.839	 -28.8038
  464.704	 -28.8078
  469.620	 -28.8118
  474.589	 -28.8156
  479.610	 -28.8193
  484.684	 -28.8227
  489.811	 -28.8257
  494.994	 -28.8282
  500.230	 -28.8301
  505.523	 -28.8313
  510.871	 -28.8317
  516.276	 -28.8315
  521.738	 -28.8309
  527.258	 -28.8302
  532.836	 -28.8293
  538.473	 -28.8281
  544.170	 -28.8266
  549.927	 -28.8247
  555.745	 -28.8225
  561.625	 -28.8200
  567.567	 -28.8172
  573.572	 -28.8137
  579.640	 -28.8095
  585.772	 -28.8043
  591.969	 -28.7980
  598.232	 -28.7904
  604.561	 -28.7812
  610.958	 -28.7705
  617.421	 -28.7585
  623.953	 -28.7452
  630.555	 -28.7309
  637.226	 -28.7158
  643.967	 -28.7007
  650.780	 -28.6853
  657.666	 -28.6693
  664.623	 -28.6525
  671.655	 -28.6344
  678.761	 -28.6150
  685.942	 -28.5939
  693.199	 -28.5716
  700.533	 -28.5487
  707.944	 -28.5261
  715.434	 -28.5036
  723.003	 -28.4806
  730.652	 -28.4572
  738.383	 -28.4340
  746.194	 -28.4120
  754.089	 -28.3910
  762.067	 -28.3703
  770.129	 -28.3495
  778.277	 -28.3283
  786.511	 -28.3062
  794.832	 -28.2821
  803.241	 -28.2567
  811.739	 -28.2302
  820.327	 -28.2007
  829.006	 -28.1682
  837.777	 -28.1319
  846.640	 -28.0927
  855.597	 -28.0512
  864.649	 -28.0079
  873.797	 -27.9628
  883.042	 -27.9156
  892.384	 -27.8672
  901.825	 -27.8178
  911.366	 -27.7672
  921.008	 -27.7150
  930.752	 -27.6613
  940.599	 -27.6061
  950.551	 -27.5500
  960.607	 -27.4939
  970.770	 -27.4368
  981.041	 -27.3781
  991.420	 -27.3169
 1001.909	 -27.2518
 1012.509	 -27.1848
 1023.221	 -27.1159
 1034.046	 -27.0469
 1044.986	 -26.9778
 1056.042	 -26.9096
 1067.214	 -26.8410
 1078.505	 -26.7705
 1089.915	 -26.6981
 1101.446	 -26.6210
 1113.099	 -26.5455
 1124.875	 -26.4734
 1136.776	 -26.4059
 1148.803	 -26.3411
 1160.957	 -26.2733
 1173.240	 -26.1989
 1185.652	 -26.1210
 1198.196	 -26.0425
 1210.873	 -25.9651
 1223.683	 -25.8900
 1236.630	 -25.8174
 1249.713	 -25.7460
 1262.934	 -25.6731
 1276.296	 -25.5965
 1289.799	 -25.5237
 1303.444	 -25.4579
 1317.234	 -25.4034
 1331.170	 -25.3557
 1345.254	 -25.3080
 1359.486	 -25.2670
 1373.869	 -25.2361
 1388.404	 -25.2195
 1403.093	 -25.2120
 1417.938	 -25.2098
 1432.939	 -25.2075
 1448.099	 -25.2173
 1463.420	 -25.2339
 1478.902	 -25.2575
 1494.548	 -25.2815
 1510.360	 -25.3113
 1526.339	 -25.3526
 1542.488	 -25.4061
 1558.807	 -25.4598
 1575.299	 -25.5231
 1591.965	 -25.5965
 1608.807	 -25.6797
 1625.828	 -25.7686
 1643.029	 -25.8618
 1660.412	 -25.9552
 1677.978	 -26.0619
 1695.731	 -26.1738
 1713.671	 -26.2873
 1731.801	 -26.3887
 1750.123	 -26.4887
 1768.639	 -26.5994
 1787.351	 -26.7250
 1806.260	 -26.8462
 1825.370	 -26.9697
 1844.682	 -27.0912
 1864.198	 -27.2165
 1883.921	 -27.3434
 1903.852	 -27.4717
 1923.995	 -27.5995
 1944.350	 -27.7239
 1964.920	 -27.8376
 1985.709	 -27.9373
 2006.717	 -28.0228
 2027.948	 -28.1025
 2049.403	 -28.1831
 2071.085	 -28.2682
 2092.996	 -28.3355
 2115.139	 -28.3972
 2137.517	 -28.4449
 2160.131	 -28.4886
 2182.985	 -28.5256
 2206.080	 -28.5607
 2229.420	 -28.5917
 2253.007	 -28.6223
 2276.843	 -28.6411
 2300.931	 -28.6447
 2325.274	 -28.6425
 2349.875	 -28.6270
 2374.736	 -28.5884
 2399.860	 -28.5375
 2425.250	 -28.4628
 2450.908	 -28.3716
 2476.838	 -28.2664
 2503.042	 -28.1513
 2529.524	 -28.0216
 2556.286	 -27.8809
 2583.330	 -27.7267
 2610.661	 -27.5646
 2638.281	 -27.3962
 2666.194	 -27.2153
 2694.401	 -27.0266
 2722.907	 -26.8256
 2751.715	 -26.6090
 2780.827	 -26.3770
 2810.247	 -26.1259
 2839.979	 -25.8606
 2870.025	 -25.5845
 2900.389	 -25.3027
 2931.074	 -25.0147
 2962.084	 -24.7138
 2993.422	 -24.4085
 3025.092	 -24.0967
 3057.097	 -23.7767
 3089.440	 -23.4551
 3122.125	 -23.1307
 3155.156	 -22.8067
 3188.537	 -22.4775
 3222.271	 -22.1408
 3256.362	 -21.7975
 3290.813	 -21.4477
 3325.629	 -21.0949
 3360.813	 -20.7335
 3396.369	 -20.3655
 3432.302	 -19.9883
 3468.615	 -19.6054
 3505.312	 -19.2186
 3542.397	 -18.8278
 3579.875	 -18.4400
 3617.749	 -18.0641
 3656.023	 -17.6981
 3694.703	 -17.3506
 3733.792	 -17.0231
 3773.294	 -16.7186
 3813.215	 -16.4395
 3853.557	 -16.1820
 3894.327	 -15.9395
 3935.528	 -15.6920
 3977.165	 -15.4066
 4019.242	 -15.0581
 4061.764	 -14.6183
 4104.737	 -14.0687
 4148.164	 -13.4054
 4192.050	 -12.6440
 4236.400	 -11.7992
 4281.221	 -10.9330
 4326.515	 -10.1003
 4372.288	 -9.3638
 4418.545	 -8.7709
 4465.292	 -8.3369
 4512.534	 -8.0560
 4560.275	 -7.9163
 4608.521	 -7.9012
 4657.278	 -8.0059
 4706.551	 -8.2371
 4756.345	 -8.6101
 4806.666	 -9.1444
 4857.519	 -9.8595
 4908.910	 -10.7461
 4960.845	 -11.7795
 5013.330	 -12.8996
 5066.369	 -14.0332
 5119.970	 -15.1329
 5174.138	 -16.1806
 5228.878	 -17.1540
 5284.198	 -18.0698
 5340.104	 -18.9325
 5396.601	 -19.7334
 5453.695	 -20.4711
 5511.394	 -21.1405
 5569.703	 -21.7269
 5628.628	 -22.2249
 5688.178	 -22.6225
 5748.357	 -22.9217
 5809.173	 -23.1275
 5870.632	 -23.2585
 5932.742	 -23.3347
 5995.509	 -23.3796
 6058.939	 -23.4140
 6123.041	 -23.4577
 6187.821	 -23.5243
 6253.287	 -23.6218
 6319.445	 -23.7546
 6386.303	 -23.9244
 6453.868	 -24.1281
 6522.148	 -24.3652
 6591.150	 -24.6362
 6660.883	 -24.9409
 6731.353	 -25.2804
 6802.569	 -25.6497
 6874.538	 -26.0258
 6947.269	 -26.3782
 7020.769	 -26.6552
 7095.046	 -26.8021
 7170.110	 -26.7622
 7245.968	 -26.5046
 7322.628	 -26.0329
 7400.100	 -25.3996
 7478.390	 -24.6678
 7557.510	 -23.9151
 7637.466	 -23.2187
 7718.268	 -22.6373
 7799.925	 -22.2006
 7882.446	 -21.9155
 7965.840	 -21.7736
 8050.116	 -21.7630
 8135.284	 -21.8776
 8221.354	 -22.1194
 8308.333	 -22.4960
 8396.232	 -23.0215
 8485.063	 -23.7022
 8574.832	 -24.5254
 8665.551	 -25.4352
 8757.230	 -26.3267
 8849.879	 -27.0774
 8943.509	 -27.5999
 9038.128	 -27.8836
 9133.749	 -27.9816
 9230.382	 -27.9651
 9328.036	 -27.8850
 9426.725	 -27.7803
 9526.456	 -27.6789
 9627.243	 -27.6094
 9729.097	 -27.5938
 9832.028	 -27.6400
 9936.048	 -27.7415
10041.169	 -27.8784
10147.401	 -28.0274
10254.758	 -28.1757
10363.250	 -28.3136
10472.891	 -28.4437
10583.690	 -28.5802
10695.663	 -28.7151
10808.820	 -28.8217
10923.175	 -28.8640
11038.738	 -28.8290
11155.525	 -28.7419
11273.547	 -28.6460
11392.818	 -28.5785
11513.351	 -28.5565
11635.159	 -28.5867
11758.256	 -28.6710
11882.654	 -28.8115
12008.370	 -29.0107
12135.415	 -29.2793
12263.804	 -29.6406
12393.552	 -30.1081
12524.672	 -30.6721
12657.179	 -31.2914
12791.089	 -31.9075
12926.415	 -32.4792
13063.172	 -32.9794
13201.377	 -33.3963
13341.044	 -33.7327
13482.188	 -34.0095
13624.826	 -34.2596
13768.973	 -34.5064
13914.645	 -34.7515
14061.857	 -35.0024
14210.628	 -35.2755
14360.973	 -35.5831
14512.907	 -35.9184
14666.449	 -36.2453
14821.616	 -36.4887
14978.425	 -36.5803
15136.893	 -36.4968
15297.036	 -36.2690
15458.875	 -35.9738
15622.425	 -35.6792
15787.706	 -35.4238
15954.735	 -35.2170
16123.532	 -35.0544
16294.114	 -34.9334
16466.502	 -34.8603
16640.713	 -34.8471
16816.766	 -34.9071
16994.682	 -35.0607
17174.482	 -35.3140
17356.182	 -35.6515
17539.807	 -36.0435
17725.373	 -36.4512
17912.902	 -36.8567
18102.414	 -37.2700
18293.934	 -37.7216
18487.479	 -38.2514
18683.070	 -38.9068
18880.732	 -39.7178
19080.484	 -40.6782
19282.350	 -41.7313
19486.352	 -42.7819
19692.512	 -43.7727
19900.854	 -44.7537
20111.398	 -45.7800
20324.172	 -46.7520
20539.195	 -47.7099
20756.494	 -48.6383
20976.092	 -49.5538
21198.014	 -50.4322
21422.281	 -51.1864
