Smoothed Frequency Response
Resolution = 1/6 octave
Numpoints = 720
SamplingRate = 44100 Hz
Frequency(Hz)   Magnitude(dB)
   11.082	 -38.4014
   11.199	 -38.3416
   11.318	 -38.2805
   11.438	 -38.2169
   11.559	 -38.1457
   11.681	 -38.0597
   11.804	 -37.9583
   11.929	 -37.8354
   12.056	 -37.7116
   12.183	 -37.5870
   12.312	 -37.4616
   12.442	 -37.3353
   12.574	 -37.2083
   12.707	 -37.0805
   12.841	 -36.9519
   12.977	 -36.8225
   13.114	 -36.6925
   13.253	 -36.5617
   13.393	 -36.4302
   13.535	 -36.2981
   13.678	 -36.1654
   13.823	 -36.0320
   13.969	 -35.8981
   14.117	 -35.7636
   14.266	 -35.6286
   14.417	 -35.4932
   14.570	 -35.3572
   14.724	 -35.2209
   14.880	 -35.0842
   15.037	 -34.9471
   15.196	 -34.8098
   15.357	 -34.6722
   15.520	 -34.5345
   15.684	 -34.3966
   15.850	 -34.2586
   16.017	 -34.1205
   16.187	 -33.9825
   16.358	 -33.8446
   16.531	 -33.7068
   16.706	 -33.5692
   16.883	 -33.4319
   17.061	 -33.2949
   17.242	 -33.1584
   17.424	 -33.0223
   17.609	 -32.8869
   17.795	 -32.7521
   17.983	 -32.6181
   18.174	 -32.4849
   18.366	 -32.3527
   18.560	 -32.2215
   18.756	 -32.0915
   18.955	 -31.9628
   19.155	 -31.8354
   19.358	 -31.7096
   19.563	 -31.5853
   19.770	 -31.4628
   19.979	 -31.3422
   20.190	 -31.2237
   20.404	 -31.1072
   20.620	 -30.9929
   20.838	 -30.8806
   21.058	 -30.7703
   21.281	 -30.6616
   21.506	 -30.5544
   21.734	 -30.4486
   21.964	 -30.3438
   22.196	 -30.2399
   22.431	 -30.1366
   22.668	 -30.0338
   22.908	 -29.9313
   23.151	 -29.8291
   23.396	 -29.7269
   23.643	 -29.6250
   23.893	 -29.5234
   24.146	 -29.4220
   24.401	 -29.3209
   24.660	 -29.2202
   24.920	 -29.1198
   25.184	 -29.0198
   25.451	 -28.9202
   25.720	 -28.8211
   25.992	 -28.7226
   26.267	 -28.6246
   26.545	 -28.5271
   26.826	 -28.4303
   27.109	 -28.3342
   27.396	 -28.2388
   27.686	 -28.1441
   27.979	 -28.0503
   28.275	 -27.9573
   28.574	 -27.8652
   28.876	 -27.7740
   29.182	 -27.6838
   29.491	 -27.5947
   29.803	 -27.5067
   30.118	 -27.4199
   30.437	 -27.3341
   30.759	 -27.2491
   31.084	 -27.1647
   31.413	 -27.0805
   31.745	 -26.9965
   32.081	 -26.9126
   32.421	 -26.8288
   32.764	 -26.7450
   33.110	 -26.6611
   33.460	 -26.5773
   33.814	 -26.4935
   34.172	 -26.4098
   34.534	 -26.3265
   34.899	 -26.2439
   35.268	 -26.1621
   35.641	 -26.0812
   36.019	 -26.0013
   36.400	 -25.9224
   36.785	 -25.8446
   37.174	 -25.7679
   37.567	 -25.6923
   37.965	 -25.6179
   38.366	 -25.5448
   38.772	 -25.4731
   39.182	 -25.4027
   39.597	 -25.3337
   40.016	 -25.2663
   40.439	 -25.2004
   40.867	 -25.1366
   41.299	 -25.0751
   41.736	 -25.0166
   42.178	 -24.9611
   42.624	 -24.9088
   43.075	 -24.8598
   43.531	 -24.8141
   43.991	 -24.7716
   44.457	 -24.7323
   44.927	 -24.6961
   45.402	 -24.6627
   45.883	 -24.6317
   46.368	 -24.6024
   46.859	 -24.5744
   47.354	 -24.5471
   47.855	 -24.5204
   48.362	 -24.4937
   48.873	 -24.4667
   49.390	 -24.4388
   49.913	 -24.4097
   50.441	 -24.3788
   50.975	 -24.3457
   51.514	 -24.3100
   52.059	 -24.2715
   52.610	 -24.2301
   53.166	 -24.1855
   53.729	 -24.1376
   54.297	 -24.0864
   54.872	 -24.0321
   55.452	 -23.9748
   56.039	 -23.9148
   56.632	 -23.8522
   57.231	 -23.7876
   57.837	 -23.7212
   58.448	 -23.6532
   59.067	 -23.5842
   59.692	 -23.5145
   60.323	 -23.4446
   60.961	 -23.3751
   61.606	 -23.3064
   62.258	 -23.2388
   62.917	 -23.1725
   63.582	 -23.1077
   64.255	 -23.0444
   64.935	 -22.9826
   65.622	 -22.9224
   66.316	 -22.8637
   67.018	 -22.8063
   67.727	 -22.7500
   68.443	 -22.6949
   69.167	 -22.6406
   69.899	 -22.5871
   70.639	 -22.5345
   71.386	 -22.4827
   72.141	 -22.4318
   72.905	 -22.3818
   73.676	 -22.3327
   74.455	 -22.2845
   75.243	 -22.2371
   76.039	 -22.1906
   76.844	 -22.1450
   77.657	 -22.1002
   78.478	 -22.0562
   79.308	 -22.0131
   80.147	 -21.9709
   80.995	 -21.9296
   81.852	 -21.8891
   82.718	 -21.8496
   83.593	 -21.8111
   84.478	 -21.7735
   85.372	 -21.7368
   86.275	 -21.7011
   87.188	 -21.6663
   88.110	 -21.6324
   89.042	 -21.5994
   89.984	 -21.5673
   90.936	 -21.5361
   91.898	 -21.5057
   92.871	 -21.4762
   93.853	 -21.4475
   94.846	 -21.4196
   95.849	 -21.3925
   96.864	 -21.3662
   97.888	 -21.3407
   98.924	 -21.3161
   99.971	 -21.2923
  101.028	 -21.2694
  102.097	 -21.2475
  103.177	 -21.2266
  104.269	 -21.2067
  105.372	 -21.1879
  106.487	 -21.1703
  107.613	 -21.1539
  108.752	 -21.1387
  109.902	 -21.1246
  111.065	 -21.1118
  112.240	 -21.1002
  113.428	 -21.0899
  114.628	 -21.0809
  115.840	 -21.0731
  117.066	 -21.0664
  118.304	 -21.0609
  119.556	 -21.0565
  120.821	 -21.0531
  122.099	 -21.0507
  123.391	 -21.0492
  124.696	 -21.0486
  126.016	 -21.0488
  127.349	 -21.0497
  128.696	 -21.0512
  130.058	 -21.0533
  131.434	 -21.0558
  132.824	 -21.0585
  134.230	 -21.0611
  135.650	 -21.0632
  137.085	 -21.0648
  138.535	 -21.0656
  140.001	 -21.0657
  141.482	 -21.0649
  142.979	 -21.0635
  144.491	 -21.0615
  146.020	 -21.0592
  147.565	 -21.0569
  149.126	 -21.0547
  150.704	 -21.0530
  152.298	 -21.0520
  153.910	 -21.0520
  155.538	 -21.0530
  157.183	 -21.0551
  158.846	 -21.0580
  160.527	 -21.0618
  162.225	 -21.0662
  163.942	 -21.0711
  165.676	 -21.0765
  167.429	 -21.0824
  169.200	 -21.0885
  170.990	 -21.0950
  172.799	 -21.1018
  174.627	 -21.1088
  176.475	 -21.1162
  178.342	 -21.1241
  180.229	 -21.1325
  182.136	 -21.1414
  184.063	 -21.1509
  186.010	 -21.1610
  187.978	 -21.1717
  189.967	 -21.1831
  191.976	 -21.1952
  194.007	 -21.2080
  196.060	 -21.2214
  198.134	 -21.2355
  200.230	 -21.2503
  202.349	 -21.2659
  204.490	 -21.2826
  206.653	 -21.3006
  208.839	 -21.3202
  211.049	 -21.3415
  213.282	 -21.3648
  215.538	 -21.3900
  217.818	 -21.4174
  220.123	 -21.4470
  222.452	 -21.4786
  224.805	 -21.5121
  227.184	 -21.5470
  229.587	 -21.5827
  232.016	 -21.6186
  234.471	 -21.6538
  236.951	 -21.6875
  239.458	 -21.7189
  241.992	 -21.7476
  244.552	 -21.7733
  247.139	 -21.7957
  249.754	 -21.8148
  252.396	 -21.8307
  255.066	 -21.8440
  257.765	 -21.8551
  260.492	 -21.8647
  263.248	 -21.8735
  266.033	 -21.8821
  268.848	 -21.8914
  271.692	 -21.9014
  274.566	 -21.9122
  277.471	 -21.9238
  280.407	 -21.9363
  283.373	 -21.9496
  286.371	 -21.9634
  289.401	 -21.9778
  292.463	 -21.9925
  295.557	 -22.0075
  298.684	 -22.0229
  301.844	 -22.0385
  305.037	 -22.0543
  308.265	 -22.0705
  311.526	 -22.0870
  314.822	 -22.1038
  318.152	 -22.1209
  321.518	 -22.1381
  324.920	 -22.1555
  328.358	 -22.1729
  331.832	 -22.1903
  335.342	 -22.2078
  338.890	 -22.2252
  342.475	 -22.2426
  346.099	 -22.2600
  349.760	 -22.2772
  353.461	 -22.2945
  357.200	 -22.3116
  360.979	 -22.3289
  364.798	 -22.3461
  368.658	 -22.3633
  372.558	 -22.3802
  376.500	 -22.3969
  380.483	 -22.4133
  384.508	 -22.4293
  388.576	 -22.4449
  392.687	 -22.4601
  396.842	 -22.4749
  401.040	 -22.4889
  405.283	 -22.5022
  409.571	 -22.5147
  413.904	 -22.5268
  418.283	 -22.5383
  422.708	 -22.5493
  427.181	 -22.5598
  431.700	 -22.5699
  436.267	 -22.5797
  440.883	 -22.5892
  445.547	 -22.5988
  450.261	 -22.6084
  455.025	 -22.6183
  459.839	 -22.6283
  464.704	 -22.6384
  469.620	 -22.6484
  474.589	 -22.6586
  479.610	 -22.6692
  484.684	 -22.6804
  489.811	 -22.6920
  494.994	 -22.7040
  500.230	 -22.7165
  505.523	 -22.7298
  510.871	 -22.7438
  516.276	 -22.7586
  521.738	 -22.7742
  527.258	 -22.7907
  532.836	 -22.8083
  538.473	 -22.8268
  544.170	 -22.8460
  549.927	 -22.8655
  555.745	 -22.8848
  561.625	 -22.9033
  567.567	 -22.9205
  573.572	 -22.9358
  579.640	 -22.9486
  585.772	 -22.9586
  591.969	 -22.9652
  598.232	 -22.9681
  604.561	 -22.9671
  610.958	 -22.9620
  617.421	 -22.9529
  623.953	 -22.9403
  630.555	 -22.9249
  637.226	 -22.9070
  643.967	 -22.8872
  650.780	 -22.8658
  657.666	 -22.8435
  664.623	 -22.8204
  671.655	 -22.7969
  678.761	 -22.7733
  685.942	 -22.7497
  693.199	 -22.7264
  700.533	 -22.7035
  707.944	 -22.6810
  715.434	 -22.6585
  723.003	 -22.6358
  730.652	 -22.6126
  738.383	 -22.5886
  746.194	 -22.5631
  754.089	 -22.5365
  762.067	 -22.5094
  770.129	 -22.4823
  778.277	 -22.4556
  786.511	 -22.4296
  794.832	 -22.4051
  803.241	 -22.3839
  811.739	 -22.3688
  820.327	 -22.3634
  829.006	 -22.3712
  837.777	 -22.3932
  846.640	 -22.4273
  855.597	 -22.4682
  864.649	 -22.5102
  873.797	 -22.5485
  883.042	 -22.5797
  892.384	 -22.6010
  901.825	 -22.6092
  911.366	 -22.6006
  921.008	 -22.5722
  930.752	 -22.5232
  940.599	 -22.4556
  950.551	 -22.3738
  960.607	 -22.2852
  970.770	 -22.1946
  981.041	 -22.1056
  991.420	 -22.0195
 1001.909	 -21.9368
 1012.509	 -21.8576
 1023.221	 -21.7826
 1034.046	 -21.7120
 1044.986	 -21.6445
 1056.042	 -21.5799
 1067.214	 -21.5174
 1078.505	 -21.4566
 1089.915	 -21.3985
 1101.446	 -21.3426
 1113.099	 -21.2903
 1124.875	 -21.2417
 1136.776	 -21.1960
 1148.803	 -21.1525
 1160.957	 -21.1097
 1173.240	 -21.0673
 1185.652	 -21.0243
 1198.196	 -20.9825
 1210.873	 -20.9403
 1223.683	 -20.8987
 1236.630	 -20.8569
 1249.713	 -20.8125
 1262.934	 -20.7666
 1276.296	 -20.7199
 1289.799	 -20.6743
 1303.444	 -20.6324
 1317.234	 -20.5931
 1331.170	 -20.5578
 1345.254	 -20.5256
 1359.486	 -20.4952
 1373.869	 -20.4670
 1388.404	 -20.4418
 1403.093	 -20.4173
 1417.938	 -20.3934
 1432.939	 -20.3721
 1448.099	 -20.3516
 1463.420	 -20.3327
 1478.902	 -20.3171
 1494.548	 -20.3017
 1510.360	 -20.2855
 1526.339	 -20.2677
 1542.488	 -20.2484
 1558.807	 -20.2290
 1575.299	 -20.2051
 1591.965	 -20.1796
 1608.807	 -20.1494
 1625.828	 -20.1178
 1643.029	 -20.0856
 1660.412	 -20.0559
 1677.978	 -20.0336
 1695.731	 -20.0181
 1713.671	 -20.0139
 1731.801	 -20.0212
 1750.123	 -20.0329
 1768.639	 -20.0521
 1787.351	 -20.0718
 1806.260	 -20.0907
 1825.370	 -20.1037
 1844.682	 -20.1099
 1864.198	 -20.1107
 1883.921	 -20.1079
 1903.852	 -20.1028
 1923.995	 -20.0911
 1944.350	 -20.0733
 1964.920	 -20.0520
 1985.709	 -20.0279
 2006.717	 -20.0069
 2027.948	 -19.9861
 2049.403	 -19.9699
 2071.085	 -19.9584
 2092.996	 -19.9459
 2115.139	 -19.9328
 2137.517	 -19.9137
 2160.131	 -19.8905
 2182.985	 -19.8650
 2206.080	 -19.8371
 2229.420	 -19.8057
 2253.007	 -19.7696
 2276.843	 -19.7302
 2300.931	 -19.6868
 2325.274	 -19.6390
 2349.875	 -19.5875
 2374.736	 -19.5292
 2399.860	 -19.4642
 2425.250	 -19.3900
 2450.908	 -19.3083
 2476.838	 -19.2169
 2503.042	 -19.1182
 2529.524	 -19.0131
 2556.286	 -18.9013
 2583.330	 -18.7821
 2610.661	 -18.6536
 2638.281	 -18.5183
 2666.194	 -18.3779
 2694.401	 -18.2332
 2722.907	 -18.0830
 2751.715	 -17.9215
 2780.827	 -17.7490
 2810.247	 -17.5601
 2839.979	 -17.3583
 2870.025	 -17.1414
 2900.389	 -16.9136
 2931.074	 -16.6805
 2962.084	 -16.4379
 2993.422	 -16.1868
 3025.092	 -15.9252
 3057.097	 -15.6601
 3089.440	 -15.3968
 3122.125	 -15.1359
 3155.156	 -14.8772
 3188.537	 -14.6178
 3222.271	 -14.3586
 3256.362	 -14.0976
 3290.813	 -13.8363
 3325.629	 -13.5784
 3360.813	 -13.3226
 3396.369	 -13.0710
 3432.302	 -12.8184
 3468.615	 -12.5654
 3505.312	 -12.3124
 3542.397	 -12.0591
 3579.875	 -11.8086
 3617.749	 -11.5653
 3656.023	 -11.3305
 3694.703	 -11.1025
 3733.792	 -10.8799
 3773.294	 -10.6578
 3813.215	 -10.4327
 3853.557	 -10.2055
 3894.327	 -9.9778
 3935.528	 -9.7532
 3977.165	 -9.5329
 4019.242	 -9.3086
 4061.764	 -9.0724
 4104.737	 -8.8059
 4148.164	 -8.4980
 4192.050	 -8.1335
 4236.400	 -7.6880
 4281.221	 -7.1437
 4326.515	 -6.4682
 4372.288	 -5.6880
 4418.545	 -4.8356
 4465.292	 -3.9896
 4512.534	 -3.2202
 4560.275	 -2.5796
 4608.521	 -2.0921
 4657.278	 -1.7508
 4706.551	 -1.5439
 4756.345	 -1.4569
 4806.666	 -1.4869
 4857.519	 -1.6423
 4908.910	 -1.9371
 4960.845	 -2.3938
 5013.330	 -3.0195
 5066.369	 -3.8194
 5119.970	 -4.7663
 5174.138	 -5.8193
 5228.878	 -6.9319
 5284.198	 -8.0656
 5340.104	 -9.2148
 5396.601	 -10.3570
 5453.695	 -11.4844
 5511.394	 -12.5840
 5569.703	 -13.6500
 5628.628	 -14.6733
 5688.178	 -15.6429
 5748.357	 -16.5396
 5809.173	 -17.3292
 5870.632	 -17.9933
 5932.742	 -18.5271
 5995.509	 -18.9259
 6058.939	 -19.2189
 6123.041	 -19.4219
 6187.821	 -19.5608
 6253.287	 -19.6480
 6319.445	 -19.6942
 6386.303	 -19.7027
 6453.868	 -19.6732
 6522.148	 -19.5994
 6591.150	 -19.4726
 6660.883	 -19.2838
 6731.353	 -19.0284
 6802.569	 -18.7060
 6874.538	 -18.3239
 6947.269	 -17.8985
 7020.769	 -17.4483
 7095.046	 -16.9944
 7170.110	 -16.5518
 7245.968	 -16.1330
 7322.628	 -15.7433
 7400.100	 -15.3868
 7478.390	 -15.0659
 7557.510	 -14.7821
 7637.466	 -14.5371
 7718.268	 -14.3313
 7799.925	 -14.1639
 7882.446	 -14.0323
 7965.840	 -13.9318
 8050.116	 -13.8592
 8135.284	 -13.8137
 8221.354	 -13.7981
 8308.333	 -13.8186
 8396.232	 -13.8829
 8485.063	 -13.9972
 8574.832	 -14.1665
 8665.551	 -14.3934
 8757.230	 -14.6791
 8849.879	 -15.0248
 8943.509	 -15.4327
 9038.128	 -15.9061
 9133.749	 -16.4481
 9230.382	 -17.0586
 9328.036	 -17.7309
 9426.725	 -18.4548
 9526.456	 -19.2122
 9627.243	 -19.9826
 9729.097	 -20.7428
 9832.028	 -21.4666
 9936.048	 -22.1303
10041.169	 -22.7142
10147.401	 -23.2000
10254.758	 -23.5772
10363.250	 -23.8425
10472.891	 -24.0061
10583.690	 -24.0964
10695.663	 -24.1475
10808.820	 -24.1938
10923.175	 -24.2645
11038.738	 -24.3778
11155.525	 -24.5447
11273.547	 -24.7703
11392.818	 -25.0575
11513.351	 -25.4067
11635.159	 -25.8171
11758.256	 -26.2781
11882.654	 -26.7679
12008.370	 -27.2540
12135.415	 -27.6989
12263.804	 -28.0700
12393.552	 -28.3419
12524.672	 -28.5003
12657.179	 -28.5404
12791.089	 -28.4649
12926.415	 -28.2896
13063.172	 -28.0354
13201.377	 -27.7264
13341.044	 -27.3848
13482.188	 -27.0325
13624.826	 -26.6933
13768.973	 -26.3905
13914.645	 -26.1451
14061.857	 -25.9706
14210.628	 -25.8687
14360.973	 -25.8273
14512.907	 -25.8224
14666.449	 -25.8234
14821.616	 -25.8031
14978.425	 -25.7480
15136.893	 -25.6491
15297.036	 -25.4965
15458.875	 -25.2794
15622.425	 -24.9963
15787.706	 -24.6668
15954.735	 -24.3292
16123.532	 -24.0326
16294.114	 -23.8189
16466.502	 -23.7107
16640.713	 -23.7113
16816.766	 -23.8118
16994.682	 -24.0052
17174.482	 -24.2928
17356.182	 -24.6883
17539.807	 -25.2095
17725.373	 -25.8694
17912.902	 -26.6696
18102.414	 -27.5914
18293.934	 -28.5981
18487.479	 -29.6413
18683.070	 -30.6929
18880.732	 -31.7532
19080.484	 -32.8275
19282.350	 -33.9002
19486.352	 -34.9248
19692.512	 -35.8716
19900.854	 -36.7510
20111.398	 -37.6023
20324.172	 -38.3430
20539.195	 -39.0158
20756.494	 -39.6333
20976.092	 -40.2759
21198.014	 -41.0406
21422.281	 -42.0141
