Smoothed Frequency Response
Resolution = 1/6 octave
Numpoints = 720
SamplingRate = 44100 Hz
Frequency(Hz)   Magnitude(dB)
   11.082	 -19.4657
   11.199	 -19.4530
   11.318	 -19.4402
   11.438	 -19.4268
   11.559	 -19.4118
   11.681	 -19.3935
   11.804	 -19.3718
   11.929	 -19.3452
   12.056	 -19.3185
   12.183	 -19.2916
   12.312	 -19.2645
   12.442	 -19.2372
   12.574	 -19.2097
   12.707	 -19.1821
   12.841	 -19.1543
   12.977	 -19.1264
   13.114	 -19.0983
   13.253	 -19.0700
   13.393	 -19.0416
   13.535	 -19.0131
   13.678	 -18.9845
   13.823	 -18.9557
   13.969	 -18.9268
   14.117	 -18.8978
   14.266	 -18.8687
   14.417	 -18.8396
   14.570	 -18.8103
   14.724	 -18.7810
   14.880	 -18.7516
   15.037	 -18.7221
   15.196	 -18.6926
   15.357	 -18.6631
   15.520	 -18.6336
   15.684	 -18.6041
   15.850	 -18.5746
   16.017	 -18.5451
   16.187	 -18.5156
   16.358	 -18.4862
   16.531	 -18.4569
   16.706	 -18.4276
   16.883	 -18.3985
   17.061	 -18.3695
   17.242	 -18.3406
   17.424	 -18.3119
   17.609	 -18.2834
   17.795	 -18.2551
   17.983	 -18.2270
   18.174	 -18.1992
   18.366	 -18.1716
   18.560	 -18.1444
   18.756	 -18.1174
   18.955	 -18.0909
   19.155	 -18.0647
   19.358	 -18.0389
   19.563	 -18.0137
   19.770	 -17.9888
   19.979	 -17.9646
   20.190	 -17.9408
   20.404	 -17.9177
   20.620	 -17.8952
   20.838	 -17.8732
   21.058	 -17.8519
   21.281	 -17.8313
   21.506	 -17.8112
   21.734	 -17.7916
   21.964	 -17.7726
   22.196	 -17.7542
   22.431	 -17.7362
   22.668	 -17.7186
   22.908	 -17.7015
   23.151	 -17.6847
   23.396	 -17.6682
   23.643	 -17.6521
   23.893	 -17.6362
   24.146	 -17.6207
   24.401	 -17.6053
   24.660	 -17.5902
   24.920	 -17.5753
   25.184	 -17.5605
   25.451	 -17.5459
   25.720	 -17.5313
   25.992	 -17.5168
   26.267	 -17.5022
   26.545	 -17.4876
   26.826	 -17.4729
   27.109	 -17.4581
   27.396	 -17.4430
   27.686	 -17.4277
   27.979	 -17.4120
   28.275	 -17.3960
   28.574	 -17.3794
   28.876	 -17.3623
   29.182	 -17.3446
   29.491	 -17.3262
   29.803	 -17.3069
   30.118	 -17.2868
   30.437	 -17.2657
   30.759	 -17.2438
   31.084	 -17.2209
   31.413	 -17.1973
   31.745	 -17.1728
   32.081	 -17.1475
   32.421	 -17.1212
   32.764	 -17.0939
   33.110	 -17.0657
   33.460	 -17.0364
   33.814	 -17.0062
   34.172	 -16.9750
   34.534	 -16.9427
   34.899	 -16.9092
   35.268	 -16.8746
   35.641	 -16.8389
   36.019	 -16.8022
   36.400	 -16.7645
   36.785	 -16.7262
   37.174	 -16.6871
   37.567	 -16.6475
   37.965	 -16.6075
   38.366	 -16.5672
   38.772	 -16.5268
   39.182	 -16.4865
   39.597	 -16.4463
   40.016	 -16.4066
   40.439	 -16.3674
   40.867	 -16.3298
   41.299	 -16.2943
   41.736	 -16.2617
   42.178	 -16.2323
   42.624	 -16.2062
   43.075	 -16.1833
   43.531	 -16.1636
   43.991	 -16.1471
   44.457	 -16.1337
   44.927	 -16.1232
   45.402	 -16.1153
   45.883	 -16.1093
   46.368	 -16.1046
   46.859	 -16.1005
   47.354	 -16.0971
   47.855	 -16.0944
   48.362	 -16.0924
   48.873	 -16.0910
   49.390	 -16.0905
   49.913	 -16.0907
   50.441	 -16.0917
   50.975	 -16.0934
   51.514	 -16.0960
   52.059	 -16.0993
   52.610	 -16.1033
   53.166	 -16.1082
   53.729	 -16.1137
   54.297	 -16.1201
   54.872	 -16.1271
   55.452	 -16.1348
   56.039	 -16.1431
   56.632	 -16.1520
   57.231	 -16.1614
   57.837	 -16.1713
   58.448	 -16.1815
   59.067	 -16.1919
   59.692	 -16.2024
   60.323	 -16.2130
   60.961	 -16.2233
   61.606	 -16.2332
   62.258	 -16.2427
   62.917	 -16.2516
   63.582	 -16.2599
   64.255	 -16.2677
   64.935	 -16.2749
   65.622	 -16.2815
   66.316	 -16.2877
   67.018	 -16.2935
   67.727	 -16.2991
   68.443	 -16.3044
   69.167	 -16.3096
   69.899	 -16.3149
   70.639	 -16.3202
   71.386	 -16.3255
   72.141	 -16.3308
   72.905	 -16.3362
   73.676	 -16.3417
   74.455	 -16.3471
   75.243	 -16.3526
   76.039	 -16.3582
   76.844	 -16.3638
   77.657	 -16.3695
   78.478	 -16.3752
   79.308	 -16.3809
   80.147	 -16.3867
   80.995	 -16.3926
   81.852	 -16.3985
   82.718	 -16.4044
   83.593	 -16.4104
   84.478	 -16.4164
   85.372	 -16.4225
   86.275	 -16.4287
   87.188	 -16.4348
   88.110	 -16.4410
   89.042	 -16.4473
   89.984	 -16.4536
   90.936	 -16.4599
   91.898	 -16.4663
   92.871	 -16.4726
   93.853	 -16.4788
   94.846	 -16.4849
   95.849	 -16.4909
   96.864	 -16.4967
   97.888	 -16.5023
   98.924	 -16.5078
   99.971	 -16.5129
  101.028	 -16.5178
  102.097	 -16.5224
  103.177	 -16.5265
  104.269	 -16.5302
  105.372	 -16.5335
  106.487	 -16.5364
  107.613	 -16.5389
  108.752	 -16.5411
  109.902	 -16.5428
  111.065	 -16.5443
  112.240	 -16.5456
  113.428	 -16.5466
  114.628	 -16.5475
  115.840	 -16.5484
  117.066	 -16.5492
  118.304	 -16.5502
  119.556	 -16.5512
  120.821	 -16.5523
  122.099	 -16.5534
  123.391	 -16.5547
  124.696	 -16.5561
  126.016	 -16.5576
  127.349	 -16.5594
  128.696	 -16.5613
  130.058	 -16.5634
  131.434	 -16.5657
  132.824	 -16.5680
  134.230	 -16.5704
  135.650	 -16.5728
  137.085	 -16.5751
  138.535	 -16.5772
  140.001	 -16.5792
  141.482	 -16.5811
  142.979	 -16.5827
  144.491	 -16.5842
  146.020	 -16.5856
  147.565	 -16.5869
  149.126	 -16.5881
  150.704	 -16.5894
  152.298	 -16.5909
  153.910	 -16.5927
  155.538	 -16.5949
  157.183	 -16.5977
  158.846	 -16.6010
  160.527	 -16.6050
  162.225	 -16.6097
  163.942	 -16.6150
  165.676	 -16.6210
  167.429	 -16.6278
  169.200	 -16.6353
  170.990	 -16.6434
  172.799	 -16.6519
  174.627	 -16.6606
  176.475	 -16.6692
  178.342	 -16.6776
  180.229	 -16.6856
  182.136	 -16.6930
  184.063	 -16.6995
  186.010	 -16.7049
  187.978	 -16.7089
  189.967	 -16.7115
  191.976	 -16.7126
  194.007	 -16.7124
  196.060	 -16.7111
  198.134	 -16.7089
  200.230	 -16.7062
  202.349	 -16.7030
  204.490	 -16.6999
  206.653	 -16.6972
  208.839	 -16.6954
  211.049	 -16.6949
  213.282	 -16.6961
  215.538	 -16.6992
  217.818	 -16.7042
  220.123	 -16.7116
  222.452	 -16.7213
  224.805	 -16.7336
  227.184	 -16.7486
  229.587	 -16.7662
  232.016	 -16.7863
  234.471	 -16.8088
  236.951	 -16.8335
  239.458	 -16.8601
  241.992	 -16.8884
  244.552	 -16.9182
  247.139	 -16.9491
  249.754	 -16.9807
  252.396	 -17.0127
  255.066	 -17.0447
  257.765	 -17.0762
  260.492	 -17.1070
  263.248	 -17.1367
  266.033	 -17.1652
  268.848	 -17.1924
  271.692	 -17.2181
  274.566	 -17.2424
  277.471	 -17.2654
  280.407	 -17.2873
  283.373	 -17.3084
  286.371	 -17.3289
  289.401	 -17.3492
  292.463	 -17.3696
  295.557	 -17.3903
  298.684	 -17.4112
  301.844	 -17.4323
  305.037	 -17.4534
  308.265	 -17.4741
  311.526	 -17.4940
  314.822	 -17.5127
  318.152	 -17.5299
  321.518	 -17.5450
  324.920	 -17.5575
  328.358	 -17.5669
  331.832	 -17.5727
  335.342	 -17.5745
  338.890	 -17.5719
  342.475	 -17.5648
  346.099	 -17.5529
  349.760	 -17.5360
  353.461	 -17.5141
  357.200	 -17.4872
  360.979	 -17.4556
  364.798	 -17.4195
  368.658	 -17.3793
  372.558	 -17.3353
  376.500	 -17.2883
  380.483	 -17.2392
  384.508	 -17.1889
  388.576	 -17.1383
  392.687	 -17.0881
  396.842	 -17.0393
  401.040	 -16.9926
  405.283	 -16.9489
  409.571	 -16.9088
  413.904	 -16.8729
  418.283	 -16.8414
  422.708	 -16.8140
  427.181	 -16.7906
  431.700	 -16.7714
  436.267	 -16.7565
  440.883	 -16.7461
  445.547	 -16.7397
  450.261	 -16.7371
  455.025	 -16.7380
  459.839	 -16.7425
  464.704	 -16.7508
  469.620	 -16.7634
  474.589	 -16.7803
  479.610	 -16.8019
  484.684	 -16.8279
  489.811	 -16.8580
  494.994	 -16.8923
  500.230	 -16.9307
  505.523	 -16.9730
  510.871	 -17.0187
  516.276	 -17.0675
  521.738	 -17.1200
  527.258	 -17.1766
  532.836	 -17.2375
  538.473	 -17.3025
  544.170	 -17.3713
  549.927	 -17.4429
  555.745	 -17.5160
  561.625	 -17.5893
  567.567	 -17.6615
  573.572	 -17.7312
  579.640	 -17.7964
  585.772	 -17.8541
  591.969	 -17.9021
  598.232	 -17.9382
  604.561	 -17.9617
  610.958	 -17.9726
  617.421	 -17.9713
  623.953	 -17.9582
  630.555	 -17.9350
  637.226	 -17.9031
  643.967	 -17.8649
  650.780	 -17.8228
  657.666	 -17.7785
  664.623	 -17.7326
  671.655	 -17.6859
  678.761	 -17.6392
  685.942	 -17.5932
  693.199	 -17.5490
  700.533	 -17.5085
  707.944	 -17.4740
  715.434	 -17.4456
  723.003	 -17.4224
  730.652	 -17.4036
  738.383	 -17.3905
  746.194	 -17.3861
  754.089	 -17.3927
  762.067	 -17.4116
  770.129	 -17.4422
  778.277	 -17.4830
  786.511	 -17.5333
  794.832	 -17.5917
  803.241	 -17.6580
  811.739	 -17.7328
  820.327	 -17.8174
  829.006	 -17.9120
  837.777	 -18.0139
  846.640	 -18.1213
  855.597	 -18.2349
  864.649	 -18.3558
  873.797	 -18.4857
  883.042	 -18.6263
  892.384	 -18.7790
  901.825	 -18.9430
  911.366	 -19.1167
  921.008	 -19.2966
  930.752	 -19.4781
  940.599	 -19.6569
  950.551	 -19.8275
  960.607	 -19.9883
  970.770	 -20.1323
  981.041	 -20.2550
  991.420	 -20.3556
 1001.909	 -20.4334
 1012.509	 -20.4901
 1023.221	 -20.5312
 1034.046	 -20.5616
 1044.986	 -20.5855
 1056.042	 -20.6042
 1067.214	 -20.6171
 1078.505	 -20.6240
 1089.915	 -20.6261
 1101.446	 -20.6222
 1113.099	 -20.6124
 1124.875	 -20.5927
 1136.776	 -20.5593
 1148.803	 -20.5132
 1160.957	 -20.4531
 1173.240	 -20.3784
 1185.652	 -20.2919
 1198.196	 -20.1954
 1210.873	 -20.0951
 1223.683	 -19.9952
 1236.630	 -19.8975
 1249.713	 -19.8053
 1262.934	 -19.7206
 1276.296	 -19.6469
 1289.799	 -19.5820
 1303.444	 -19.5311
 1317.234	 -19.4918
 1331.170	 -19.4649
 1345.254	 -19.4486
 1359.486	 -19.4371
 1373.869	 -19.4244
 1388.404	 -19.4085
 1403.093	 -19.3871
 1417.938	 -19.3586
 1432.939	 -19.3234
 1448.099	 -19.2842
 1463.420	 -19.2419
 1478.902	 -19.2048
 1494.548	 -19.1708
 1510.360	 -19.1411
 1526.339	 -19.1138
 1542.488	 -19.0930
 1558.807	 -19.0797
 1575.299	 -19.0785
 1591.965	 -19.0904
 1608.807	 -19.1175
 1625.828	 -19.1563
 1643.029	 -19.2001
 1660.412	 -19.2496
 1677.978	 -19.3128
 1695.731	 -19.3939
 1713.671	 -19.4963
 1731.801	 -19.6093
 1750.123	 -19.7254
 1768.639	 -19.8321
 1787.351	 -19.9336
 1806.260	 -20.0276
 1825.370	 -20.1196
 1844.682	 -20.2060
 1864.198	 -20.2773
 1883.921	 -20.3282
 1903.852	 -20.3575
 1923.995	 -20.3760
 1944.350	 -20.3914
 1964.920	 -20.4069
 1985.709	 -20.4253
 2006.717	 -20.4416
 2027.948	 -20.4582
 2049.403	 -20.4732
 2071.085	 -20.4900
 2092.996	 -20.5139
 2115.139	 -20.5478
 2137.517	 -20.5886
 2160.131	 -20.6252
 2182.985	 -20.6532
 2206.080	 -20.6742
 2229.420	 -20.6860
 2253.007	 -20.6826
 2276.843	 -20.6614
 2300.931	 -20.6229
 2325.274	 -20.5689
 2349.875	 -20.5038
 2374.736	 -20.4258
 2399.860	 -20.3386
 2425.250	 -20.2566
 2450.908	 -20.1910
 2476.838	 -20.1581
 2503.042	 -20.1619
 2529.524	 -20.2004
 2556.286	 -20.2775
 2583.330	 -20.3882
 2610.661	 -20.5315
 2638.281	 -20.7037
 2666.194	 -20.9048
 2694.401	 -21.1259
 2722.907	 -21.3563
 2751.715	 -21.5754
 2780.827	 -21.7689
 2810.247	 -21.9316
 2839.979	 -22.0602
 2870.025	 -22.1685
 2900.389	 -22.2649
 2931.074	 -22.3479
 2962.084	 -22.4075
 2993.422	 -22.4359
 3025.092	 -22.4376
 3057.097	 -22.3987
 3089.440	 -22.2896
 3122.125	 -22.0859
 3155.156	 -21.8075
 3188.537	 -21.4914
 3222.271	 -21.1709
 3256.362	 -20.8504
 3290.813	 -20.5228
 3325.629	 -20.1711
 3360.813	 -19.7813
 3396.369	 -19.3835
 3432.302	 -19.0046
 3468.615	 -18.6740
 3505.312	 -18.4035
 3542.397	 -18.1644
 3579.875	 -17.9196
 3617.749	 -17.6459
 3656.023	 -17.3368
 3694.703	 -17.0051
 3733.792	 -16.6654
 3773.294	 -16.3165
 3813.215	 -15.9501
 3853.557	 -15.5492
 3894.327	 -15.0976
 3935.528	 -14.6001
 3977.165	 -14.0617
 4019.242	 -13.4630
 4061.764	 -12.7978
 4104.737	 -12.0427
 4148.164	 -11.2198
 4192.050	 -10.3718
 4236.400	 -9.5650
 4281.221	 -8.8549
 4326.515	 -8.2877
 4372.288	 -7.8704
 4418.545	 -7.5993
 4465.292	 -7.4548
 4512.534	 -7.4225
 4560.275	 -7.5019
 4608.521	 -7.7057
 4657.278	 -8.0497
 4706.551	 -8.5553
 4756.345	 -9.2266
 4806.666	 -10.0533
 4857.519	 -10.9879
 4908.910	 -11.9608
 4960.845	 -12.8798
 5013.330	 -13.7010
 5066.369	 -14.3864
 5119.970	 -14.9388
 5174.138	 -15.3538
 5228.878	 -15.6343
 5284.198	 -15.8106
 5340.104	 -15.9169
 5396.601	 -15.9814
 5453.695	 -16.0437
 5511.394	 -16.1353
 5569.703	 -16.2788
 5628.628	 -16.4799
 5688.178	 -16.7363
 5748.357	 -17.0437
 5809.173	 -17.3965
 5870.632	 -17.7764
 5932.742	 -18.1736
 5995.509	 -18.5755
 6058.939	 -18.9764
 6123.041	 -19.3640
 6187.821	 -19.7280
 6253.287	 -20.0578
 6319.445	 -20.3389
 6386.303	 -20.5499
 6453.868	 -20.6787
 6522.148	 -20.7251
 6591.150	 -20.7227
 6660.883	 -20.6941
 6731.353	 -20.6505
 6802.569	 -20.5784
 6874.538	 -20.4539
 6947.269	 -20.2553
 7020.769	 -19.9806
 7095.046	 -19.6440
 7170.110	 -19.2464
 7245.968	 -18.7941
 7322.628	 -18.2782
 7400.100	 -17.7105
 7478.390	 -17.1175
 7557.510	 -16.5486
 7637.466	 -16.0579
 7718.268	 -15.6907
 7799.925	 -15.4667
 7882.446	 -15.3878
 7965.840	 -15.4465
 8050.116	 -15.6353
 8135.284	 -15.9547
 8221.354	 -16.4155
 8308.333	 -17.0270
 8396.232	 -17.7987
 8485.063	 -18.7088
 8574.832	 -19.6875
 8665.551	 -20.5684
 8757.230	 -21.1446
 8849.879	 -21.2847
 8943.509	 -21.0521
 9038.128	 -20.6137
 9133.749	 -20.1178
 9230.382	 -19.6587
 9328.036	 -19.2836
 9426.725	 -19.0183
 9526.456	 -18.8747
 9627.243	 -18.8543
 9729.097	 -18.9522
 9832.028	 -19.1590
 9936.048	 -19.4635
10041.169	 -19.8497
10147.401	 -20.3030
10254.758	 -20.8089
10363.250	 -21.3598
10472.891	 -21.9502
10583.690	 -22.5658
10695.663	 -23.1688
10808.820	 -23.6904
10923.175	 -24.0480
11038.738	 -24.1934
11155.525	 -24.1503
11273.547	 -24.0032
11392.818	 -23.8449
11513.351	 -23.7284
11635.159	 -23.6542
11758.256	 -23.5959
11882.654	 -23.5249
12008.370	 -23.4254
12135.415	 -23.2973
12263.804	 -23.1466
12393.552	 -23.0003
12524.672	 -22.8860
12657.179	 -22.8044
12791.089	 -22.7287
12926.415	 -22.6336
13063.172	 -22.5090
13201.377	 -22.3702
13341.044	 -22.2470
13482.188	 -22.1759
13624.826	 -22.1869
13768.973	 -22.2879
13914.645	 -22.4492
14061.857	 -22.6143
14210.628	 -22.7271
14360.973	 -22.7832
14512.907	 -22.8293
14666.449	 -22.9147
14821.616	 -23.0607
14978.425	 -23.2553
15136.893	 -23.4399
15297.036	 -23.5314
15458.875	 -23.4784
15622.425	 -23.3134
15787.706	 -23.1223
15954.735	 -22.9858
16123.532	 -22.9430
16294.114	 -22.9893
16466.502	 -23.0986
16640.713	 -23.2507
16816.766	 -23.4553
16994.682	 -23.7488
17174.482	 -24.1796
17356.182	 -24.7842
17539.807	 -25.5590
17725.373	 -26.4507
17912.902	 -27.3737
18102.414	 -28.2575
18293.934	 -29.0622
18487.479	 -29.7834
18683.070	 -30.4508
18880.732	 -31.0953
19080.484	 -31.7558
19282.350	 -32.4598
19486.352	 -33.2385
19692.512	 -34.1283
19900.854	 -35.1550
20111.398	 -36.3126
20324.172	 -37.4265
20539.195	 -38.4417
20756.494	 -39.3148
20976.092	 -40.0533
21198.014	 -40.6518
21422.281	 -41.1369
