Smoothed Frequency Response
Resolution = 1/6 octave
Numpoints = 720
SamplingRate = 44100 Hz
Frequency(Hz)   Magnitude(dB)
   11.082	 -28.5278
   11.199	 -28.4736
   11.318	 -28.4183
   11.438	 -28.3607
   11.559	 -28.2963
   11.681	 -28.2184
   11.804	 -28.1264
   11.929	 -28.0149
   12.056	 -27.9026
   12.183	 -27.7895
   12.312	 -27.6757
   12.442	 -27.5612
   12.574	 -27.4460
   12.707	 -27.3300
   12.841	 -27.2135
   12.977	 -27.0963
   13.114	 -26.9784
   13.253	 -26.8600
   13.393	 -26.7410
   13.535	 -26.6215
   13.678	 -26.5014
   13.823	 -26.3809
   13.969	 -26.2599
   14.117	 -26.1384
   14.266	 -26.0166
   14.417	 -25.8945
   14.570	 -25.7720
   14.724	 -25.6492
   14.880	 -25.5263
   15.037	 -25.4031
   15.196	 -25.2798
   15.357	 -25.1564
   15.520	 -25.0330
   15.684	 -24.9096
   15.850	 -24.7863
   16.017	 -24.6632
   16.187	 -24.5402
   16.358	 -24.4175
   16.531	 -24.2951
   16.706	 -24.1732
   16.883	 -24.0517
   17.061	 -23.9308
   17.242	 -23.8106
   17.424	 -23.6910
   17.609	 -23.5723
   17.795	 -23.4545
   17.983	 -23.3378
   18.174	 -23.2221
   18.366	 -23.1076
   18.560	 -22.9945
   18.756	 -22.8828
   18.955	 -22.7727
   19.155	 -22.6643
   19.358	 -22.5577
   19.563	 -22.4530
   19.770	 -22.3505
   19.979	 -22.2502
   20.190	 -22.1522
   20.404	 -22.0568
   20.620	 -21.9639
   20.838	 -21.8734
   21.058	 -21.7852
   21.281	 -21.6990
   21.506	 -21.6146
   21.734	 -21.5318
   21.964	 -21.4503
   22.196	 -21.3699
   22.431	 -21.2904
   22.668	 -21.2114
   22.908	 -21.1329
   23.151	 -21.0547
   23.396	 -20.9768
   23.643	 -20.8992
   23.893	 -20.8219
   24.146	 -20.7449
   24.401	 -20.6684
   24.660	 -20.5922
   24.920	 -20.5165
   25.184	 -20.4413
   25.451	 -20.3666
   25.720	 -20.2924
   25.992	 -20.2188
   26.267	 -20.1458
   26.545	 -20.0735
   26.826	 -20.0018
   27.109	 -19.9309
   27.396	 -19.8607
   27.686	 -19.7913
   27.979	 -19.7227
   28.275	 -19.6551
   28.574	 -19.5883
   28.876	 -19.5226
   29.182	 -19.4578
   29.491	 -19.3941
   29.803	 -19.3315
   30.118	 -19.2701
   30.437	 -19.2098
   30.759	 -19.1504
   31.084	 -19.0919
   31.413	 -19.0339
   31.745	 -18.9764
   32.081	 -18.9193
   32.421	 -18.8625
   32.764	 -18.8060
   33.110	 -18.7498
   33.460	 -18.6936
   33.814	 -18.6377
   34.172	 -18.5819
   34.534	 -18.5264
   34.899	 -18.4714
   35.268	 -18.4171
   35.641	 -18.3634
   36.019	 -18.3104
   36.400	 -18.2581
   36.785	 -18.2066
   37.174	 -18.1558
   37.567	 -18.1059
   37.965	 -18.0569
   38.366	 -18.0088
   38.772	 -17.9616
   39.182	 -17.9154
   39.597	 -17.8703
   40.016	 -17.8262
   40.439	 -17.7832
   40.867	 -17.7416
   41.299	 -17.7015
   41.736	 -17.6629
   42.178	 -17.6260
   42.624	 -17.5907
   43.075	 -17.5568
   43.531	 -17.5243
   43.991	 -17.4932
   44.457	 -17.4632
   44.927	 -17.4344
   45.402	 -17.4065
   45.883	 -17.3793
   46.368	 -17.3528
   46.859	 -17.3265
   47.354	 -17.3007
   47.855	 -17.2754
   48.362	 -17.2504
   48.873	 -17.2260
   49.390	 -17.2020
   49.913	 -17.1785
   50.441	 -17.1555
   50.975	 -17.1332
   51.514	 -17.1114
   52.059	 -17.0903
   52.610	 -17.0698
   53.166	 -17.0498
   53.729	 -17.0303
   54.297	 -17.0113
   54.872	 -16.9925
   55.452	 -16.9741
   56.039	 -16.9558
   56.632	 -16.9377
   57.231	 -16.9195
   57.837	 -16.9013
   58.448	 -16.8829
   59.067	 -16.8644
   59.692	 -16.8457
   60.323	 -16.8269
   60.961	 -16.8078
   61.606	 -16.7886
   62.258	 -16.7693
   62.917	 -16.7497
   63.582	 -16.7300
   64.255	 -16.7100
   64.935	 -16.6899
   65.622	 -16.6697
   66.316	 -16.6492
   67.018	 -16.6286
   67.727	 -16.6077
   68.443	 -16.5867
   69.167	 -16.5654
   69.899	 -16.5440
   70.639	 -16.5223
   71.386	 -16.5003
   72.141	 -16.4778
   72.905	 -16.4548
   73.676	 -16.4311
   74.455	 -16.4065
   75.243	 -16.3810
   76.039	 -16.3546
   76.844	 -16.3272
   77.657	 -16.2988
   78.478	 -16.2694
   79.308	 -16.2392
   80.147	 -16.2082
   80.995	 -16.1769
   81.852	 -16.1453
   82.718	 -16.1138
   83.593	 -16.0826
   84.478	 -16.0518
   85.372	 -16.0215
   86.275	 -15.9921
   87.188	 -15.9634
   88.110	 -15.9356
   89.042	 -15.9088
   89.984	 -15.8830
   90.936	 -15.8581
   91.898	 -15.8345
   92.871	 -15.8124
   93.853	 -15.7921
   94.846	 -15.7737
   95.849	 -15.7571
   96.864	 -15.7425
   97.888	 -15.7296
   98.924	 -15.7184
   99.971	 -15.7086
  101.028	 -15.7001
  102.097	 -15.6925
  103.177	 -15.6854
  104.269	 -15.6783
  105.372	 -15.6707
  106.487	 -15.6626
  107.613	 -15.6537
  108.752	 -15.6440
  109.902	 -15.6337
  111.065	 -15.6227
  112.240	 -15.6113
  113.428	 -15.5997
  114.628	 -15.5880
  115.840	 -15.5764
  117.066	 -15.5652
  118.304	 -15.5543
  119.556	 -15.5440
  120.821	 -15.5342
  122.099	 -15.5252
  123.391	 -15.5170
  124.696	 -15.5096
  126.016	 -15.5030
  127.349	 -15.4972
  128.696	 -15.4923
  130.058	 -15.4882
  131.434	 -15.4850
  132.824	 -15.4827
  134.230	 -15.4812
  135.650	 -15.4805
  137.085	 -15.4806
  138.535	 -15.4814
  140.001	 -15.4828
  141.482	 -15.4850
  142.979	 -15.4877
  144.491	 -15.4911
  146.020	 -15.4951
  147.565	 -15.4996
  149.126	 -15.5048
  150.704	 -15.5106
  152.298	 -15.5170
  153.910	 -15.5241
  155.538	 -15.5319
  157.183	 -15.5404
  158.846	 -15.5497
  160.527	 -15.5597
  162.225	 -15.5706
  163.942	 -15.5824
  165.676	 -15.5951
  167.429	 -15.6088
  169.200	 -15.6236
  170.990	 -15.6393
  172.799	 -15.6558
  174.627	 -15.6728
  176.475	 -15.6900
  178.342	 -15.7074
  180.229	 -15.7248
  182.136	 -15.7419
  184.063	 -15.7587
  186.010	 -15.7750
  187.978	 -15.7906
  189.967	 -15.8055
  191.976	 -15.8197
  194.007	 -15.8331
  196.060	 -15.8458
  198.134	 -15.8577
  200.230	 -15.8688
  202.349	 -15.8792
  204.490	 -15.8891
  206.653	 -15.8986
  208.839	 -15.9079
  211.049	 -15.9173
  213.282	 -15.9270
  215.538	 -15.9375
  217.818	 -15.9490
  220.123	 -15.9621
  222.452	 -15.9770
  224.805	 -15.9938
  227.184	 -16.0127
  229.587	 -16.0334
  232.016	 -16.0559
  234.471	 -16.0799
  236.951	 -16.1053
  239.458	 -16.1317
  241.992	 -16.1589
  244.552	 -16.1866
  247.139	 -16.2146
  249.754	 -16.2428
  252.396	 -16.2712
  255.066	 -16.2996
  257.765	 -16.3281
  260.492	 -16.3567
  263.248	 -16.3854
  266.033	 -16.4142
  268.848	 -16.4433
  271.692	 -16.4724
  274.566	 -16.5017
  277.471	 -16.5314
  280.407	 -16.5615
  283.373	 -16.5921
  286.371	 -16.6232
  289.401	 -16.6546
  292.463	 -16.6863
  295.557	 -16.7183
  298.684	 -16.7505
  301.844	 -16.7829
  305.037	 -16.8156
  308.265	 -16.8483
  311.526	 -16.8810
  314.822	 -16.9134
  318.152	 -16.9455
  321.518	 -16.9773
  324.920	 -17.0091
  328.358	 -17.0409
  331.832	 -17.0730
  335.342	 -17.1055
  338.890	 -17.1383
  342.475	 -17.1715
  346.099	 -17.2048
  349.760	 -17.2385
  353.461	 -17.2723
  357.200	 -17.3065
  360.979	 -17.3409
  364.798	 -17.3755
  368.658	 -17.4098
  372.558	 -17.4437
  376.500	 -17.4769
  380.483	 -17.5097
  384.508	 -17.5422
  388.576	 -17.5746
  392.687	 -17.6066
  396.842	 -17.6381
  401.040	 -17.6690
  405.283	 -17.6995
  409.571	 -17.7293
  413.904	 -17.7588
  418.283	 -17.7879
  422.708	 -17.8167
  427.181	 -17.8451
  431.700	 -17.8732
  436.267	 -17.9013
  440.883	 -17.9298
  445.547	 -17.9585
  450.261	 -17.9872
  455.025	 -18.0158
  459.839	 -18.0443
  464.704	 -18.0730
  469.620	 -18.1018
  474.589	 -18.1306
  479.610	 -18.1588
  484.684	 -18.1859
  489.811	 -18.2122
  494.994	 -18.2378
  500.230	 -18.2632
  505.523	 -18.2888
  510.871	 -18.3147
  516.276	 -18.3408
  521.738	 -18.3665
  527.258	 -18.3917
  532.836	 -18.4170
  538.473	 -18.4429
  544.170	 -18.4697
  549.927	 -18.4970
  555.745	 -18.5240
  561.625	 -18.5504
  567.567	 -18.5766
  573.572	 -18.6032
  579.640	 -18.6304
  585.772	 -18.6585
  591.969	 -18.6873
  598.232	 -18.7163
  604.561	 -18.7446
  610.958	 -18.7721
  617.421	 -18.7995
  623.953	 -18.8274
  630.555	 -18.8557
  637.226	 -18.8838
  643.967	 -18.9110
  650.780	 -18.9370
  657.666	 -18.9622
  664.623	 -18.9869
  671.655	 -19.0117
  678.761	 -19.0370
  685.942	 -19.0631
  693.199	 -19.0891
  700.533	 -19.1136
  707.944	 -19.1362
  715.434	 -19.1572
  723.003	 -19.1778
  730.652	 -19.1990
  738.383	 -19.2204
  746.194	 -19.2417
  754.089	 -19.2628
  762.067	 -19.2836
  770.129	 -19.3034
  778.277	 -19.3218
  786.511	 -19.3396
  794.832	 -19.3578
  803.241	 -19.3765
  811.739	 -19.3957
  820.327	 -19.4157
  829.006	 -19.4359
  837.777	 -19.4583
  846.640	 -19.4819
  855.597	 -19.5058
  864.649	 -19.5296
  873.797	 -19.5540
  883.042	 -19.5802
  892.384	 -19.6085
  901.825	 -19.6374
  911.366	 -19.6656
  921.008	 -19.6937
  930.752	 -19.7216
  940.599	 -19.7495
  950.551	 -19.7797
  960.607	 -19.8123
  970.770	 -19.8507
  981.041	 -19.8928
  991.420	 -19.9372
 1001.909	 -19.9817
 1012.509	 -20.0282
 1023.221	 -20.0772
 1034.046	 -20.1293
 1044.986	 -20.1849
 1056.042	 -20.2431
 1067.214	 -20.3048
 1078.505	 -20.3713
 1089.915	 -20.4396
 1101.446	 -20.5107
 1113.099	 -20.5839
 1124.875	 -20.6605
 1136.776	 -20.7396
 1148.803	 -20.8214
 1160.957	 -20.9046
 1173.240	 -20.9922
 1185.652	 -21.0823
 1198.196	 -21.1774
 1210.873	 -21.2756
 1223.683	 -21.3772
 1236.630	 -21.4820
 1249.713	 -21.5898
 1262.934	 -21.6983
 1276.296	 -21.8023
 1289.799	 -21.9026
 1303.444	 -21.9977
 1317.234	 -22.0877
 1331.170	 -22.1722
 1345.254	 -22.2467
 1359.486	 -22.3157
 1373.869	 -22.3804
 1388.404	 -22.4458
 1403.093	 -22.5114
 1417.938	 -22.5757
 1432.939	 -22.6462
 1448.099	 -22.7151
 1463.420	 -22.7814
 1478.902	 -22.8377
 1494.548	 -22.8872
 1510.360	 -22.9327
 1526.339	 -22.9765
 1542.488	 -23.0174
 1558.807	 -23.0529
 1575.299	 -23.0796
 1591.965	 -23.0975
 1608.807	 -23.1098
 1625.828	 -23.1239
 1643.029	 -23.1398
 1660.412	 -23.1666
 1677.978	 -23.1926
 1695.731	 -23.2134
 1713.671	 -23.2273
 1731.801	 -23.2386
 1750.123	 -23.2508
 1768.639	 -23.2668
 1787.351	 -23.2830
 1806.260	 -23.2951
 1825.370	 -23.2979
 1844.682	 -23.2948
 1864.198	 -23.2878
 1883.921	 -23.2815
 1903.852	 -23.2701
 1923.995	 -23.2567
 1944.350	 -23.2346
 1964.920	 -23.2109
 1985.709	 -23.1884
 2006.717	 -23.1731
 2027.948	 -23.1591
 2049.403	 -23.1440
 2071.085	 -23.1212
 2092.996	 -23.0970
 2115.139	 -23.0730
 2137.517	 -23.0551
 2160.131	 -23.0416
 2182.985	 -23.0318
 2206.080	 -23.0232
 2229.420	 -23.0202
 2253.007	 -23.0236
 2276.843	 -23.0411
 2300.931	 -23.0733
 2325.274	 -23.1255
 2349.875	 -23.1897
 2374.736	 -23.2715
 2399.860	 -23.3673
 2425.250	 -23.4804
 2450.908	 -23.6072
 2476.838	 -23.7413
 2503.042	 -23.8763
 2529.524	 -24.0075
 2556.286	 -24.1345
 2583.330	 -24.2552
 2610.661	 -24.3742
 2638.281	 -24.4890
 2666.194	 -24.5963
 2694.401	 -24.6939
 2722.907	 -24.7747
 2751.715	 -24.8396
 2780.827	 -24.8843
 2810.247	 -24.9042
 2839.979	 -24.8951
 2870.025	 -24.8540
 2900.389	 -24.7828
 2931.074	 -24.6817
 2962.084	 -24.5570
 2993.422	 -24.4000
 3025.092	 -24.2112
 3057.097	 -23.9869
 3089.440	 -23.7276
 3122.125	 -23.4299
 3155.156	 -23.1053
 3188.537	 -22.7662
 3222.271	 -22.4308
 3256.362	 -22.1038
 3290.813	 -21.7797
 3325.629	 -21.4635
 3360.813	 -21.1641
 3396.369	 -20.8729
 3432.302	 -20.5770
 3468.615	 -20.2792
 3505.312	 -19.9767
 3542.397	 -19.6693
 3579.875	 -19.3579
 3617.749	 -19.0316
 3656.023	 -18.6786
 3694.703	 -18.2777
 3733.792	 -17.8049
 3773.294	 -17.2432
 3813.215	 -16.5869
 3853.557	 -15.8528
 3894.327	 -15.0773
 3935.528	 -14.2839
 3977.165	 -13.4934
 4019.242	 -12.7101
 4061.764	 -11.9304
 4104.737	 -11.1630
 4148.164	 -10.4140
 4192.050	 -9.6752
 4236.400	 -8.9538
 4281.221	 -8.2509
 4326.515	 -7.5490
 4372.288	 -6.8458
 4418.545	 -6.1392
 4465.292	 -5.4483
 4512.534	 -4.8002
 4560.275	 -4.2047
 4608.521	 -3.6765
 4657.278	 -3.2086
 4706.551	 -2.7952
 4756.345	 -2.4334
 4806.666	 -2.1170
 4857.519	 -1.8445
 4908.910	 -1.6196
 4960.845	 -1.4496
 5013.330	 -1.3366
 5066.369	 -1.2868
 5119.970	 -1.2994
 5174.138	 -1.3738
 5228.878	 -1.5136
 5284.198	 -1.7130
 5340.104	 -1.9777
 5396.601	 -2.3092
 5453.695	 -2.7114
 5511.394	 -3.1917
 5569.703	 -3.7482
 5628.628	 -4.3710
 5688.178	 -5.0442
 5748.357	 -5.7488
 5809.173	 -6.4612
 5870.632	 -7.1740
 5932.742	 -7.8854
 5995.509	 -8.5974
 6058.939	 -9.3251
 6123.041	 -10.0622
 6187.821	 -10.8113
 6253.287	 -11.5561
 6319.445	 -12.2837
 6386.303	 -12.9713
 6453.868	 -13.5933
 6522.148	 -14.1301
 6591.150	 -14.5718
 6660.883	 -14.9113
 6731.353	 -15.1511
 6802.569	 -15.2965
 6874.538	 -15.3560
 6947.269	 -15.3385
 7020.769	 -15.2464
 7095.046	 -15.0835
 7170.110	 -14.8445
 7245.968	 -14.5260
 7322.628	 -14.1176
 7400.100	 -13.6162
 7478.390	 -13.0108
 7557.510	 -12.3052
 7637.466	 -11.5404
 7718.268	 -10.8025
 7799.925	 -10.1823
 7882.446	 -9.7275
 7965.840	 -9.4460
 8050.116	 -9.3167
 8135.284	 -9.3141
 8221.354	 -9.4209
 8308.333	 -9.6377
 8396.232	 -9.9868
 8485.063	 -10.5049
 8574.832	 -11.2361
 8665.551	 -12.2040
 8757.230	 -13.3860
 8849.879	 -14.6901
 8943.509	 -15.9721
 9038.128	 -17.1282
 9133.749	 -18.1176
 9230.382	 -18.9672
 9328.036	 -19.7015
 9426.725	 -20.3689
 9526.456	 -20.9915
 9627.243	 -21.5926
 9729.097	 -22.1797
 9832.028	 -22.7501
 9936.048	 -23.2916
10041.169	 -23.7759
10147.401	 -24.1563
10254.758	 -24.3936
10363.250	 -24.4773
10472.891	 -24.4341
10583.690	 -24.3065
10695.663	 -24.1286
10808.820	 -23.9162
10923.175	 -23.6760
11038.738	 -23.4192
11155.525	 -23.1653
11273.547	 -22.9431
11392.818	 -22.7807
11513.351	 -22.6943
11635.159	 -22.6861
11758.256	 -22.7389
11882.654	 -22.8277
12008.370	 -22.9259
12135.415	 -23.0186
12263.804	 -23.1033
12393.552	 -23.1894
12524.672	 -23.2882
12657.179	 -23.4048
12791.089	 -23.5356
12926.415	 -23.6684
13063.172	 -23.7932
13201.377	 -23.9109
13341.044	 -24.0384
13482.188	 -24.2005
13624.826	 -24.4164
13768.973	 -24.6912
13914.645	 -25.0180
14061.857	 -25.3897
14210.628	 -25.8019
14360.973	 -26.2551
14512.907	 -26.7506
14666.449	 -27.2858
14821.616	 -27.8520
14978.425	 -28.4343
15136.893	 -29.0258
15297.036	 -29.6303
15458.875	 -30.2628
15622.425	 -30.9279
15787.706	 -31.5956
15954.735	 -32.2022
16123.532	 -32.6742
16294.114	 -32.9671
16466.502	 -33.0870
16640.713	 -33.0795
16816.766	 -33.0031
16994.682	 -32.8920
17174.482	 -32.7516
17356.182	 -32.5834
17539.807	 -32.4059
17725.373	 -32.2468
17912.902	 -32.1316
18102.414	 -32.0785
18293.934	 -32.1009
18487.479	 -32.2140
18683.070	 -32.4272
18880.732	 -32.7365
19080.484	 -33.1295
19282.350	 -33.6002
19486.352	 -34.1574
19692.512	 -34.8173
19900.854	 -35.6002
20111.398	 -36.5419
20324.172	 -37.5650
20539.195	 -38.7258
20756.494	 -40.0202
20976.092	 -41.4436
21198.014	 -42.9507
21422.281	 -44.4840
