Smoothed Frequency Response
Resolution = 1/6 octave
Numpoints = 720
SamplingRate = 44100 Hz
Frequency(Hz)   Magnitude(dB)
   11.082	 -43.7503
   11.199	 -43.7083
   11.318	 -43.6655
   11.438	 -43.6211
   11.559	 -43.5712
   11.681	 -43.5110
   11.804	 -43.4397
   11.929	 -43.3530
   12.056	 -43.2659
   12.183	 -43.1782
   12.312	 -43.0901
   12.442	 -43.0015
   12.574	 -42.9124
   12.707	 -42.8230
   12.841	 -42.7331
   12.977	 -42.6429
   13.114	 -42.5523
   13.253	 -42.4614
   13.393	 -42.3702
   13.535	 -42.2787
   13.678	 -42.1869
   13.823	 -42.0950
   13.969	 -42.0028
   14.117	 -41.9105
   14.266	 -41.8181
   14.417	 -41.7256
   14.570	 -41.6331
   14.724	 -41.5406
   14.880	 -41.4481
   15.037	 -41.3557
   15.196	 -41.2634
   15.357	 -41.1713
   15.520	 -41.0795
   15.684	 -40.9879
   15.850	 -40.8967
   16.017	 -40.8059
   16.187	 -40.7155
   16.358	 -40.6257
   16.531	 -40.5365
   16.706	 -40.4479
   16.883	 -40.3601
   17.061	 -40.2731
   17.242	 -40.1870
   17.424	 -40.1019
   17.609	 -40.0178
   17.795	 -39.9349
   17.983	 -39.8533
   18.174	 -39.7729
   18.366	 -39.6941
   18.560	 -39.6168
   18.756	 -39.5411
   18.955	 -39.4672
   19.155	 -39.3953
   19.358	 -39.3253
   19.563	 -39.2575
   19.770	 -39.1920
   19.979	 -39.1289
   20.190	 -39.0683
   20.404	 -39.0105
   20.620	 -38.9553
   20.838	 -38.9027
   21.058	 -38.8527
   21.281	 -38.8049
   21.506	 -38.7592
   21.734	 -38.7155
   21.964	 -38.6734
   22.196	 -38.6328
   22.431	 -38.5934
   22.668	 -38.5551
   22.908	 -38.5176
   23.151	 -38.4809
   23.396	 -38.4449
   23.643	 -38.4096
   23.893	 -38.3752
   24.146	 -38.3415
   24.401	 -38.3087
   24.660	 -38.2768
   24.920	 -38.2458
   25.184	 -38.2158
   25.451	 -38.1868
   25.720	 -38.1588
   25.992	 -38.1318
   26.267	 -38.1060
   26.545	 -38.0814
   26.826	 -38.0579
   27.109	 -38.0357
   27.396	 -38.0147
   27.686	 -37.9951
   27.979	 -37.9769
   28.275	 -37.9601
   28.574	 -37.9448
   28.876	 -37.9310
   29.182	 -37.9187
   29.491	 -37.9081
   29.803	 -37.8992
   30.118	 -37.8920
   30.437	 -37.8866
   30.759	 -37.8828
   31.084	 -37.8806
   31.413	 -37.8799
   31.745	 -37.8809
   32.081	 -37.8835
   32.421	 -37.8880
   32.764	 -37.8943
   33.110	 -37.9025
   33.460	 -37.9126
   33.814	 -37.9246
   34.172	 -37.9386
   34.534	 -37.9547
   34.899	 -37.9729
   35.268	 -37.9931
   35.641	 -38.0151
   36.019	 -38.0388
   36.400	 -38.0639
   36.785	 -38.0901
   37.174	 -38.1173
   37.567	 -38.1450
   37.965	 -38.1731
   38.366	 -38.2012
   38.772	 -38.2290
   39.182	 -38.2560
   39.597	 -38.2820
   40.016	 -38.3064
   40.439	 -38.3289
   40.867	 -38.3496
   41.299	 -38.3686
   41.736	 -38.3861
   42.178	 -38.4021
   42.624	 -38.4165
   43.075	 -38.4295
   43.531	 -38.4407
   43.991	 -38.4504
   44.457	 -38.4585
   44.927	 -38.4651
   45.402	 -38.4700
   45.883	 -38.4729
   46.368	 -38.4732
   46.859	 -38.4705
   47.354	 -38.4647
   47.855	 -38.4556
   48.362	 -38.4431
   48.873	 -38.4272
   49.390	 -38.4076
   49.913	 -38.3844
   50.441	 -38.3574
   50.975	 -38.3232
   51.514	 -38.2768
   52.059	 -38.2120
   52.610	 -38.1225
   53.166	 -38.0032
   53.729	 -37.8500
   54.297	 -37.6595
   54.872	 -37.4297
   55.452	 -37.1599
   56.039	 -36.8512
   56.632	 -36.5072
   57.231	 -36.1339
   57.837	 -35.7390
   58.448	 -35.3314
   59.067	 -34.9188
   59.692	 -34.5089
   60.323	 -34.1095
   60.961	 -33.7327
   61.606	 -33.3909
   62.258	 -33.0912
   62.917	 -32.8365
   63.582	 -32.6258
   64.255	 -32.4566
   64.935	 -32.3269
   65.622	 -32.2348
   66.316	 -32.1785
   67.018	 -32.1555
   67.727	 -32.1612
   68.443	 -32.1886
   69.167	 -32.2292
   69.899	 -32.2747
   70.639	 -32.3207
   71.386	 -32.3664
   72.141	 -32.4113
   72.905	 -32.4551
   73.676	 -32.4975
   74.455	 -32.5383
   75.243	 -32.5774
   76.039	 -32.6148
   76.844	 -32.6506
   77.657	 -32.6849
   78.478	 -32.7179
   79.308	 -32.7501
   80.147	 -32.7815
   80.995	 -32.8121
   81.852	 -32.8419
   82.718	 -32.8708
   83.593	 -32.8987
   84.478	 -32.9257
   85.372	 -32.9517
   86.275	 -32.9770
   87.188	 -33.0014
   88.110	 -33.0252
   89.042	 -33.0482
   89.984	 -33.0708
   90.936	 -33.0928
   91.898	 -33.1145
   92.871	 -33.1360
   93.853	 -33.1574
   94.846	 -33.1788
   95.849	 -33.2000
   96.864	 -33.2213
   97.888	 -33.2424
   98.924	 -33.2636
   99.971	 -33.2846
  101.028	 -33.3056
  102.097	 -33.3264
  103.177	 -33.3470
  104.269	 -33.3672
  105.372	 -33.3868
  106.487	 -33.4059
  107.613	 -33.4244
  108.752	 -33.4423
  109.902	 -33.4593
  111.065	 -33.4757
  112.240	 -33.4910
  113.428	 -33.5053
  114.628	 -33.5186
  115.840	 -33.5307
  117.066	 -33.5419
  118.304	 -33.5522
  119.556	 -33.5617
  120.821	 -33.5704
  122.099	 -33.5784
  123.391	 -33.5858
  124.696	 -33.5927
  126.016	 -33.5993
  127.349	 -33.6058
  128.696	 -33.6122
  130.058	 -33.6186
  131.434	 -33.6249
  132.824	 -33.6310
  134.230	 -33.6368
  135.650	 -33.6419
  137.085	 -33.6462
  138.535	 -33.6497
  140.001	 -33.6522
  141.482	 -33.6539
  142.979	 -33.6550
  144.491	 -33.6557
  146.020	 -33.6561
  147.565	 -33.6565
  149.126	 -33.6569
  150.704	 -33.6575
  152.298	 -33.6585
  153.910	 -33.6600
  155.538	 -33.6619
  157.183	 -33.6643
  158.846	 -33.6668
  160.527	 -33.6692
  162.225	 -33.6712
  163.942	 -33.6726
  165.676	 -33.6731
  167.429	 -33.6728
  169.200	 -33.6715
  170.990	 -33.6693
  172.799	 -33.6660
  174.627	 -33.6617
  176.475	 -33.6564
  178.342	 -33.6500
  180.229	 -33.6426
  182.136	 -33.6341
  184.063	 -33.6247
  186.010	 -33.6141
  187.978	 -33.6026
  189.967	 -33.5899
  191.976	 -33.5763
  194.007	 -33.5616
  196.060	 -33.5461
  198.134	 -33.5299
  200.230	 -33.5129
  202.349	 -33.4952
  204.490	 -33.4770
  206.653	 -33.4582
  208.839	 -33.4388
  211.049	 -33.4190
  213.282	 -33.3986
  215.538	 -33.3776
  217.818	 -33.3557
  220.123	 -33.3329
  222.452	 -33.3091
  224.805	 -33.2845
  227.184	 -33.2589
  229.587	 -33.2327
  232.016	 -33.2057
  234.471	 -33.1783
  236.951	 -33.1504
  239.458	 -33.1222
  241.992	 -33.0938
  244.552	 -33.0653
  247.139	 -33.0369
  249.754	 -33.0084
  252.396	 -32.9799
  255.066	 -32.9517
  257.765	 -32.9236
  260.492	 -32.8960
  263.248	 -32.8690
  266.033	 -32.8426
  268.848	 -32.8169
  271.692	 -32.7919
  274.566	 -32.7680
  277.471	 -32.7454
  280.407	 -32.7245
  283.373	 -32.7058
  286.371	 -32.6896
  289.401	 -32.6764
  292.463	 -32.6666
  295.557	 -32.6610
  298.684	 -32.6601
  301.844	 -32.6646
  305.037	 -32.6749
  308.265	 -32.6912
  311.526	 -32.7134
  314.822	 -32.7411
  318.152	 -32.7740
  321.518	 -32.8115
  324.920	 -32.8530
  328.358	 -32.8976
  331.832	 -32.9439
  335.342	 -32.9907
  338.890	 -33.0364
  342.475	 -33.0801
  346.099	 -33.1205
  349.760	 -33.1569
  353.461	 -33.1884
  357.200	 -33.2146
  360.979	 -33.2351
  364.798	 -33.2498
  368.658	 -33.2590
  372.558	 -33.2634
  376.500	 -33.2636
  380.483	 -33.2601
  384.508	 -33.2538
  388.576	 -33.2457
  392.687	 -33.2370
  396.842	 -33.2286
  401.040	 -33.2210
  405.283	 -33.2145
  409.571	 -33.2093
  413.904	 -33.2057
  418.283	 -33.2037
  422.708	 -33.2034
  427.181	 -33.2046
  431.700	 -33.2070
  436.267	 -33.2101
  440.883	 -33.2137
  445.547	 -33.2175
  450.261	 -33.2216
  455.025	 -33.2259
  459.839	 -33.2304
  464.704	 -33.2348
  469.620	 -33.2390
  474.589	 -33.2428
  479.610	 -33.2459
  484.684	 -33.2484
  489.811	 -33.2511
  494.994	 -33.2552
  500.230	 -33.2601
  505.523	 -33.2647
  510.871	 -33.2673
  516.276	 -33.2659
  521.738	 -33.2583
  527.258	 -33.2431
  532.836	 -33.2187
  538.473	 -33.1848
  544.170	 -33.1405
  549.927	 -33.0848
  555.745	 -33.0168
  561.625	 -32.9374
  567.567	 -32.8489
  573.572	 -32.7551
  579.640	 -32.6585
  585.772	 -32.5615
  591.969	 -32.4667
  598.232	 -32.3767
  604.561	 -32.2934
  610.958	 -32.2182
  617.421	 -32.1516
  623.953	 -32.0939
  630.555	 -32.0445
  637.226	 -32.0021
  643.967	 -31.9649
  650.780	 -31.9314
  657.666	 -31.9006
  664.623	 -31.8704
  671.655	 -31.8394
  678.761	 -31.8064
  685.942	 -31.7698
  693.199	 -31.7304
  700.533	 -31.6886
  707.944	 -31.6450
  715.434	 -31.6006
  723.003	 -31.5563
  730.652	 -31.5138
  738.383	 -31.4755
  746.194	 -31.4416
  754.089	 -31.4120
  762.067	 -31.3859
  770.129	 -31.3616
  778.277	 -31.3388
  786.511	 -31.3154
  794.832	 -31.2891
  803.241	 -31.2577
  811.739	 -31.2189
  820.327	 -31.1701
  829.006	 -31.1090
  837.777	 -31.0336
  846.640	 -30.9447
  855.597	 -30.8428
  864.649	 -30.7290
  873.797	 -30.6079
  883.042	 -30.4839
  892.384	 -30.3578
  901.825	 -30.2313
  911.366	 -30.1060
  921.008	 -29.9864
  930.752	 -29.8742
  940.599	 -29.7707
  950.551	 -29.6767
  960.607	 -29.5964
  970.770	 -29.5260
  981.041	 -29.4648
  991.420	 -29.4104
 1001.909	 -29.3587
 1012.509	 -29.3118
 1023.221	 -29.2729
 1034.046	 -29.2384
 1044.986	 -29.2090
 1056.042	 -29.1851
 1067.214	 -29.1676
 1078.505	 -29.1543
 1089.915	 -29.1476
 1101.446	 -29.1457
 1113.099	 -29.1554
 1124.875	 -29.1786
 1136.776	 -29.2125
 1148.803	 -29.2585
 1160.957	 -29.3096
 1173.240	 -29.3643
 1185.652	 -29.4277
 1198.196	 -29.4974
 1210.873	 -29.5706
 1223.683	 -29.6389
 1236.630	 -29.6998
 1249.713	 -29.7520
 1262.934	 -29.7973
 1276.296	 -29.8287
 1289.799	 -29.8410
 1303.444	 -29.8408
 1317.234	 -29.8177
 1331.170	 -29.7760
 1345.254	 -29.7173
 1359.486	 -29.6434
 1373.869	 -29.5730
 1388.404	 -29.5009
 1403.093	 -29.4334
 1417.938	 -29.3668
 1432.939	 -29.3064
 1448.099	 -29.2619
 1463.420	 -29.2416
 1478.902	 -29.2439
 1494.548	 -29.2611
 1510.360	 -29.2958
 1526.339	 -29.3403
 1542.488	 -29.3978
 1558.807	 -29.4716
 1575.299	 -29.5529
 1591.965	 -29.6481
 1608.807	 -29.7492
 1625.828	 -29.8495
 1643.029	 -29.9444
 1660.412	 -30.0170
 1677.978	 -30.0641
 1695.731	 -30.0892
 1713.671	 -30.0892
 1731.801	 -30.0526
 1750.123	 -29.9794
 1768.639	 -29.8825
 1787.351	 -29.7733
 1806.260	 -29.6555
 1825.370	 -29.5412
 1844.682	 -29.4340
 1864.198	 -29.3486
 1883.921	 -29.2818
 1903.852	 -29.2515
 1923.995	 -29.2483
 1944.350	 -29.2675
 1964.920	 -29.3061
 1985.709	 -29.3589
 2006.717	 -29.4182
 2027.948	 -29.4827
 2049.403	 -29.5570
 2071.085	 -29.6342
 2092.996	 -29.7092
 2115.139	 -29.7814
 2137.517	 -29.8416
 2160.131	 -29.8926
 2182.985	 -29.9315
 2206.080	 -29.9720
 2229.420	 -30.0133
 2253.007	 -30.0540
 2276.843	 -30.0902
 2300.931	 -30.1247
 2325.274	 -30.1538
 2349.875	 -30.1844
 2374.736	 -30.2133
 2399.860	 -30.2345
 2425.250	 -30.2594
 2450.908	 -30.2821
 2476.838	 -30.3158
 2503.042	 -30.3533
 2529.524	 -30.3919
 2556.286	 -30.4283
 2583.330	 -30.4569
 2610.661	 -30.4896
 2638.281	 -30.5269
 2666.194	 -30.5659
 2694.401	 -30.6019
 2722.907	 -30.6233
 2751.715	 -30.6118
 2780.827	 -30.5474
 2810.247	 -30.4240
 2839.979	 -30.2387
 2870.025	 -30.0038
 2900.389	 -29.7266
 2931.074	 -29.4162
 2962.084	 -29.0747
 2993.422	 -28.7086
 3025.092	 -28.3162
 3057.097	 -27.9057
 3089.440	 -27.4831
 3122.125	 -27.0478
 3155.156	 -26.6123
 3188.537	 -26.1830
 3222.271	 -25.7678
 3256.362	 -25.3639
 3290.813	 -24.9647
 3325.629	 -24.5704
 3360.813	 -24.1920
 3396.369	 -23.8389
 3432.302	 -23.5092
 3468.615	 -23.2068
 3505.312	 -22.9207
 3542.397	 -22.6419
 3579.875	 -22.3755
 3617.749	 -22.1161
 3656.023	 -21.8656
 3694.703	 -21.6187
 3733.792	 -21.3741
 3773.294	 -21.1233
 3813.215	 -20.8657
 3853.557	 -20.5928
 3894.327	 -20.3067
 3935.528	 -20.0068
 3977.165	 -19.6910
 4019.242	 -19.3537
 4061.764	 -18.9942
 4104.737	 -18.5987
 4148.164	 -18.1777
 4192.050	 -17.7342
 4236.400	 -17.2799
 4281.221	 -16.8217
 4326.515	 -16.3721
 4372.288	 -15.9398
 4418.545	 -15.5372
 4465.292	 -15.1721
 4512.534	 -14.8524
 4560.275	 -14.5843
 4608.521	 -14.3713
 4657.278	 -14.2166
 4706.551	 -14.1318
 4756.345	 -14.1195
 4806.666	 -14.1841
 4857.519	 -14.3227
 4908.910	 -14.5334
 4960.845	 -14.8116
 5013.330	 -15.1542
 5066.369	 -15.5583
 5119.970	 -16.0231
 5174.138	 -16.5489
 5228.878	 -17.1314
 5284.198	 -17.7564
 5340.104	 -18.4016
 5396.601	 -19.0419
 5453.695	 -19.6751
 5511.394	 -20.2974
 5569.703	 -20.9011
 5628.628	 -21.4732
 5688.178	 -22.0097
 5748.357	 -22.4964
 5809.173	 -22.9143
 5870.632	 -23.2517
 5932.742	 -23.5133
 5995.509	 -23.7112
 6058.939	 -23.8766
 6123.041	 -24.0276
 6187.821	 -24.1817
 6253.287	 -24.3569
 6319.445	 -24.5654
 6386.303	 -24.8230
 6453.868	 -25.1386
 6522.148	 -25.5214
 6591.150	 -25.9783
 6660.883	 -26.5058
 6731.353	 -27.0939
 6802.569	 -27.7232
 6874.538	 -28.3835
 6947.269	 -29.0506
 7020.769	 -29.6893
 7095.046	 -30.2804
 7170.110	 -30.7999
 7245.968	 -31.2188
 7322.628	 -31.5102
 7400.100	 -31.6757
 7478.390	 -31.7133
 7557.510	 -31.6396
 7637.466	 -31.4837
 7718.268	 -31.2715
 7799.925	 -31.0384
 7882.446	 -30.8176
 7965.840	 -30.6231
 8050.116	 -30.4705
 8135.284	 -30.3651
 8221.354	 -30.3058
 8308.333	 -30.3040
 8396.232	 -30.3588
 8485.063	 -30.4665
 8574.832	 -30.6324
 8665.551	 -30.8572
 8757.230	 -31.1443
 8849.879	 -31.5001
 8943.509	 -31.9149
 9038.128	 -32.3776
 9133.749	 -32.8855
 9230.382	 -33.4155
 9328.036	 -33.9446
 9426.725	 -34.4643
 9526.456	 -34.9615
 9627.243	 -35.4404
 9729.097	 -35.8933
 9832.028	 -36.2960
 9936.048	 -36.6400
10041.169	 -36.9472
10147.401	 -37.2601
10254.758	 -37.6164
10363.250	 -38.0357
10472.891	 -38.5173
10583.690	 -39.0462
10695.663	 -39.5743
10808.820	 -40.0690
10923.175	 -40.4917
11038.738	 -40.8252
11155.525	 -41.0270
11273.547	 -41.0318
11392.818	 -40.8020
11513.351	 -40.3528
11635.159	 -39.7589
11758.256	 -39.1180
11882.654	 -38.5053
12008.370	 -37.9695
12135.415	 -37.5199
12263.804	 -37.1421
12393.552	 -36.8227
12524.672	 -36.5689
12657.179	 -36.3823
12791.089	 -36.2670
12926.415	 -36.2053
13063.172	 -36.1772
13201.377	 -36.1494
13341.044	 -36.1080
13482.188	 -36.0539
13624.826	 -36.0094
13768.973	 -36.0011
13914.645	 -36.0457
14061.857	 -36.1568
14210.628	 -36.3356
14360.973	 -36.5863
14512.907	 -36.9268
14666.449	 -37.3658
14821.616	 -37.9074
14978.425	 -38.5284
15136.893	 -39.1710
15297.036	 -39.6994
15458.875	 -39.9654
15622.425	 -39.8826
15787.706	 -39.5065
15954.735	 -38.9766
16123.532	 -38.4124
16294.114	 -37.9170
16466.502	 -37.5348
16640.713	 -37.2805
16816.766	 -37.1461
16994.682	 -37.1335
17174.482	 -37.2551
17356.182	 -37.5320
17539.807	 -37.9729
17725.373	 -38.5634
17912.902	 -39.2783
18102.414	 -40.0960
18293.934	 -41.0042
18487.479	 -41.9835
18683.070	 -42.9955
18880.732	 -44.0476
19080.484	 -45.1413
19282.350	 -46.2578
19486.352	 -47.3107
19692.512	 -48.2086
19900.854	 -48.9534
20111.398	 -49.6161
20324.172	 -50.1315
20539.195	 -57.6136
20756.494	 -58.1402
20976.092	 -58.8351
21198.014	 -59.7270
21422.281	 -60.8002
