Smoothed Frequency Response
Resolution = 1/6 octave
Numpoints = 720
SamplingRate = 48000 Hz
Frequency(Hz)   Magnitude(dB)
   12.062	 -31.3502
   12.190	 -31.2875
   12.319	 -31.2234
   12.449	 -31.1566
   12.581	 -31.0819
   12.714	 -30.9918
   12.848	 -30.8855
   12.984	 -30.7568
   13.122	 -30.6272
   13.260	 -30.4967
   13.401	 -30.3654
   13.543	 -30.2333
   13.686	 -30.1004
   13.831	 -29.9668
   13.977	 -29.8324
   14.125	 -29.6973
   14.274	 -29.5615
   14.425	 -29.4251
   14.578	 -29.2881
   14.732	 -29.1505
   14.888	 -29.0124
   15.045	 -28.8738
   15.205	 -28.7348
   15.366	 -28.5954
   15.528	 -28.4556
   15.692	 -28.3155
   15.858	 -28.1752
   16.026	 -28.0347
   16.196	 -27.8941
   16.367	 -27.7534
   16.540	 -27.6128
   16.715	 -27.4722
   16.892	 -27.3317
   17.071	 -27.1915
   17.251	 -27.0516
   17.434	 -26.9121
   17.618	 -26.7731
   17.805	 -26.6346
   17.993	 -26.4968
   18.183	 -26.3598
   18.376	 -26.2236
   18.570	 -26.0885
   18.767	 -25.9544
   18.965	 -25.8215
   19.166	 -25.6900
   19.369	 -25.5599
   19.574	 -25.4315
   19.781	 -25.3048
   19.990	 -25.1800
   20.201	 -25.0572
   20.415	 -24.9367
   20.631	 -24.8185
   20.849	 -24.7029
   21.070	 -24.5900
   21.293	 -24.4801
   21.518	 -24.3732
   21.746	 -24.2697
   21.976	 -24.1697
   22.208	 -24.0733
   22.443	 -23.9807
   22.681	 -23.8915
   22.921	 -23.8057
   23.163	 -23.7229
   23.408	 -23.6427
   23.656	 -23.5649
   23.906	 -23.4890
   24.159	 -23.4148
   24.415	 -23.3418
   24.673	 -23.2697
   24.934	 -23.1983
   25.198	 -23.1273
   25.464	 -23.0567
   25.734	 -22.9865
   26.006	 -22.9168
   26.281	 -22.8476
   26.559	 -22.7789
   26.840	 -22.7108
   27.124	 -22.6432
   27.411	 -22.5763
   27.701	 -22.5100
   27.994	 -22.4444
   28.291	 -22.3796
   28.590	 -22.3155
   28.892	 -22.2522
   29.198	 -22.1898
   29.507	 -22.1282
   29.819	 -22.0676
   30.135	 -22.0079
   30.453	 -21.9493
   30.776	 -21.8917
   31.101	 -21.8352
   31.430	 -21.7799
   31.763	 -21.7257
   32.099	 -21.6728
   32.438	 -21.6213
   32.782	 -21.5711
   33.128	 -21.5222
   33.479	 -21.4746
   33.833	 -21.4281
   34.191	 -21.3824
   34.553	 -21.3376
   34.918	 -21.2935
   35.288	 -21.2499
   35.661	 -21.2069
   36.038	 -21.1643
   36.420	 -21.1220
   36.805	 -21.0800
   37.194	 -21.0382
   37.588	 -20.9967
   37.985	 -20.9556
   38.387	 -20.9150
   38.793	 -20.8750
   39.204	 -20.8356
   39.619	 -20.7967
   40.038	 -20.7585
   40.461	 -20.7209
   40.889	 -20.6840
   41.322	 -20.6478
   41.759	 -20.6124
   42.201	 -20.5777
   42.647	 -20.5438
   43.099	 -20.5108
   43.555	 -20.4786
   44.015	 -20.4474
   44.481	 -20.4171
   44.952	 -20.3880
   45.427	 -20.3600
   45.908	 -20.3331
   46.394	 -20.3073
   46.884	 -20.2824
   47.380	 -20.2585
   47.882	 -20.2353
   48.388	 -20.2129
   48.900	 -20.1911
   49.418	 -20.1698
   49.940	 -20.1489
   50.469	 -20.1283
   51.003	 -20.1078
   51.542	 -20.0876
   52.088	 -20.0675
   52.639	 -20.0477
   53.196	 -20.0280
   53.758	 -20.0086
   54.327	 -19.9895
   54.902	 -19.9706
   55.483	 -19.9519
   56.070	 -19.9334
   56.663	 -19.9149
   57.262	 -19.8965
   57.868	 -19.8781
   58.480	 -19.8597
   59.099	 -19.8413
   59.724	 -19.8229
   60.356	 -19.8046
   60.995	 -19.7862
   61.640	 -19.7679
   62.292	 -19.7496
   62.951	 -19.7315
   63.617	 -19.7136
   64.290	 -19.6960
   64.971	 -19.6786
   65.658	 -19.6615
   66.353	 -19.6447
   67.055	 -19.6283
   67.764	 -19.6124
   68.481	 -19.5970
   69.205	 -19.5823
   69.938	 -19.5680
   70.677	 -19.5544
   71.425	 -19.5413
   72.181	 -19.5288
   72.945	 -19.5168
   73.716	 -19.5055
   74.496	 -19.4946
   75.284	 -19.4841
   76.081	 -19.4740
   76.886	 -19.4642
   77.699	 -19.4548
   78.521	 -19.4456
   79.352	 -19.4368
   80.191	 -19.4281
   81.040	 -19.4197
   81.897	 -19.4116
   82.764	 -19.4038
   83.639	 -19.3961
   84.524	 -19.3888
   85.418	 -19.3817
   86.322	 -19.3749
   87.235	 -19.3684
   88.158	 -19.3623
   89.091	 -19.3566
   90.034	 -19.3515
   90.986	 -19.3469
   91.949	 -19.3429
   92.921	 -19.3395
   93.905	 -19.3367
   94.898	 -19.3345
   95.902	 -19.3330
   96.917	 -19.3320
   97.942	 -19.3316
   98.978	 -19.3319
  100.025	 -19.3327
  101.084	 -19.3340
  102.153	 -19.3359
  103.234	 -19.3382
  104.326	 -19.3410
  105.430	 -19.3443
  106.545	 -19.3480
  107.672	 -19.3521
  108.811	 -19.3566
  109.963	 -19.3615
  111.126	 -19.3667
  112.302	 -19.3722
  113.490	 -19.3780
  114.691	 -19.3841
  115.904	 -19.3904
  117.130	 -19.3969
  118.369	 -19.4037
  119.622	 -19.4108
  120.887	 -19.4181
  122.166	 -19.4257
  123.459	 -19.4337
  124.765	 -19.4419
  126.085	 -19.4505
  127.419	 -19.4595
  128.767	 -19.4690
  130.129	 -19.4788
  131.506	 -19.4891
  132.897	 -19.4998
  134.303	 -19.5109
  135.724	 -19.5226
  137.160	 -19.5346
  138.611	 -19.5470
  140.078	 -19.5599
  141.559	 -19.5731
  143.057	 -19.5867
  144.571	 -19.6007
  146.100	 -19.6150
  147.646	 -19.6297
  149.208	 -19.6447
  150.786	 -19.6600
  152.382	 -19.6756
  153.994	 -19.6915
  155.623	 -19.7076
  157.270	 -19.7240
  158.933	 -19.7407
  160.615	 -19.7577
  162.314	 -19.7749
  164.031	 -19.7923
  165.767	 -19.8100
  167.521	 -19.8278
  169.293	 -19.8458
  171.084	 -19.8640
  172.894	 -19.8822
  174.723	 -19.9006
  176.572	 -19.9191
  178.440	 -19.9376
  180.328	 -19.9564
  182.235	 -19.9752
  184.163	 -19.9943
  186.112	 -20.0135
  188.081	 -20.0329
  190.071	 -20.0526
  192.082	 -20.0723
  194.114	 -20.0921
  196.167	 -20.1120
  198.243	 -20.1320
  200.340	 -20.1519
  202.460	 -20.1716
  204.602	 -20.1913
  206.766	 -20.2109
  208.954	 -20.2303
  211.164	 -20.2496
  213.399	 -20.2689
  215.656	 -20.2883
  217.938	 -20.3078
  220.244	 -20.3273
  222.574	 -20.3470
  224.928	 -20.3668
  227.308	 -20.3866
  229.713	 -20.4065
  232.143	 -20.4263
  234.599	 -20.4461
  237.081	 -20.4656
  239.590	 -20.4849
  242.124	 -20.5040
  244.686	 -20.5228
  247.275	 -20.5415
  249.891	 -20.5601
  252.534	 -20.5788
  255.206	 -20.5975
  257.906	 -20.6162
  260.635	 -20.6350
  263.392	 -20.6538
  266.179	 -20.6727
  268.995	 -20.6918
  271.841	 -20.7111
  274.717	 -20.7305
  277.623	 -20.7499
  280.560	 -20.7693
  283.529	 -20.7885
  286.528	 -20.8076
  289.560	 -20.8267
  292.623	 -20.8460
  295.719	 -20.8657
  298.848	 -20.8855
  302.009	 -20.9054
  305.205	 -20.9252
  308.434	 -20.9447
  311.697	 -20.9642
  314.994	 -20.9838
  318.327	 -21.0038
  321.695	 -21.0238
  325.098	 -21.0435
  328.538	 -21.0625
  332.013	 -21.0807
  335.526	 -21.0980
  339.076	 -21.1149
  342.663	 -21.1313
  346.288	 -21.1473
  349.952	 -21.1625
  353.654	 -21.1770
  357.396	 -21.1908
  361.177	 -21.2044
  364.998	 -21.2181
  368.860	 -21.2319
  372.762	 -21.2459
  376.706	 -21.2599
  380.691	 -21.2736
  384.719	 -21.2872
  388.789	 -21.3006
  392.903	 -21.3137
  397.059	 -21.3263
  401.260	 -21.3382
  405.505	 -21.3496
  409.796	 -21.3604
  414.131	 -21.3706
  418.512	 -21.3802
  422.940	 -21.3892
  427.415	 -21.3978
  431.937	 -21.4060
  436.506	 -21.4141
  441.125	 -21.4221
  445.792	 -21.4300
  450.508	 -21.4376
  455.274	 -21.4448
  460.091	 -21.4516
  464.958	 -21.4580
  469.878	 -21.4644
  474.849	 -21.4708
  479.872	 -21.4769
  484.949	 -21.4826
  490.080	 -21.4879
  495.265	 -21.4927
  500.505	 -21.4969
  505.800	 -21.5005
  511.151	 -21.5035
  516.559	 -21.5060
  522.024	 -21.5080
  527.547	 -21.5094
  533.128	 -21.5105
  538.768	 -21.5117
  544.468	 -21.5126
  550.229	 -21.5128
  556.050	 -21.5115
  561.933	 -21.5083
  567.878	 -21.5035
  573.886	 -21.4976
  579.958	 -21.4907
  586.093	 -21.4832
  592.294	 -21.4751
  598.560	 -21.4661
  604.893	 -21.4556
  611.292	 -21.4436
  617.760	 -21.4307
  624.296	 -21.4181
  630.900	 -21.4057
  637.575	 -21.3933
  644.320	 -21.3804
  651.137	 -21.3666
  658.026	 -21.3518
  664.988	 -21.3363
  672.023	 -21.3205
  679.133	 -21.3051
  686.318	 -21.2907
  693.579	 -21.2766
  700.917	 -21.2615
  708.332	 -21.2451
  715.826	 -21.2280
  723.400	 -21.2102
  731.053	 -21.1916
  738.787	 -21.1718
  746.603	 -21.1502
  754.502	 -21.1274
  762.485	 -21.1038
  770.552	 -21.0794
  778.704	 -21.0545
  786.942	 -21.0298
  795.268	 -21.0054
  803.682	 -20.9807
  812.184	 -20.9547
  820.777	 -20.9274
  829.461	 -20.8993
  838.236	 -20.8701
  847.104	 -20.8386
  856.066	 -20.8049
  865.123	 -20.7691
  874.276	 -20.7313
  883.526	 -20.6916
  892.873	 -20.6508
  902.320	 -20.6070
  911.866	 -20.5617
  921.513	 -20.5147
  931.262	 -20.4659
  941.115	 -20.4156
  951.072	 -20.3641
  961.134	 -20.3111
  971.302	 -20.2566
  981.578	 -20.1989
  991.963	 -20.1367
 1002.458	 -20.0697
 1013.064	 -19.9997
 1023.781	 -19.9270
 1034.613	 -19.8530
 1045.559	 -19.7778
 1056.620	 -19.7017
 1067.799	 -19.6228
 1079.096	 -19.5415
 1090.513	 -19.4577
 1102.050	 -19.3743
 1113.709	 -19.2968
 1125.492	 -19.2247
 1137.400	 -19.1577
 1149.433	 -19.0937
 1161.594	 -19.0321
 1173.883	 -18.9726
 1186.302	 -18.9164
 1198.853	 -18.8631
 1211.536	 -18.8116
 1224.354	 -18.7660
 1237.307	 -18.7161
 1250.398	 -18.6614
 1263.627	 -18.6020
 1276.996	 -18.5427
 1290.506	 -18.4887
 1304.159	 -18.4378
 1317.957	 -18.3948
 1331.900	 -18.3554
 1345.991	 -18.3255
 1360.232	 -18.3088
 1374.622	 -18.3027
 1389.166	 -18.3139
 1403.862	 -18.3383
 1418.715	 -18.3778
 1433.724	 -18.4226
 1448.893	 -18.4722
 1464.222	 -18.5293
 1479.713	 -18.5909
 1495.368	 -18.6564
 1511.188	 -18.7157
 1527.176	 -18.7740
 1543.333	 -18.8291
 1559.661	 -18.8787
 1576.162	 -18.9324
 1592.838	 -18.9886
 1609.689	 -19.0516
 1626.719	 -19.1148
 1643.930	 -19.1748
 1661.322	 -19.2377
 1678.898	 -19.3085
 1696.660	 -19.4012
 1714.611	 -19.5112
 1732.751	 -19.6351
 1751.083	 -19.7670
 1769.609	 -19.9091
 1788.331	 -20.0615
 1807.251	 -20.2256
 1826.371	 -20.4010
 1845.693	 -20.5908
 1865.220	 -20.7860
 1884.954	 -20.9799
 1904.896	 -21.1587
 1925.049	 -21.3218
 1945.416	 -21.4656
 1965.998	 -21.5963
 1986.797	 -21.7173
 2007.817	 -21.8291
 2029.059	 -21.9210
 2050.526	 -22.0096
 2072.220	 -22.0938
 2094.144	 -22.1846
 2116.299	 -22.2720
 2138.689	 -22.3633
 2161.316	 -22.4558
 2184.182	 -22.5531
 2207.290	 -22.6448
 2230.642	 -22.7134
 2254.242	 -22.7555
 2278.091	 -22.7764
 2302.193	 -22.7778
 2326.549	 -22.7571
 2351.163	 -22.7055
 2376.038	 -22.6267
 2401.176	 -22.5227
 2426.580	 -22.3987
 2452.252	 -22.2517
 2478.196	 -22.0810
 2504.415	 -21.8890
 2530.911	 -21.6791
 2557.687	 -21.4583
 2584.747	 -21.2240
 2612.093	 -20.9792
 2639.728	 -20.7284
 2667.655	 -20.4747
 2695.878	 -20.2073
 2724.400	 -19.9272
 2753.223	 -19.6336
 2782.352	 -19.3265
 2811.788	 -19.0168
 2841.536	 -18.7080
 2871.599	 -18.4004
 2901.979	 -18.0997
 2932.681	 -17.8049
 2963.708	 -17.5099
 2995.063	 -17.2147
 3026.750	 -16.9153
 3058.773	 -16.6195
 3091.134	 -16.3339
 3123.837	 -16.0582
 3156.886	 -15.7925
 3190.285	 -15.5372
 3224.037	 -15.2814
 3258.147	 -15.0196
 3292.617	 -14.7532
 3327.452	 -14.4812
 3362.656	 -14.2069
 3398.231	 -13.9320
 3434.184	 -13.6495
 3470.516	 -13.3615
 3507.233	 -13.0671
 3544.339	 -12.7704
 3581.837	 -12.4759
 3619.732	 -12.1893
 3658.028	 -11.9141
 3696.729	 -11.6556
 3735.839	 -11.4174
 3775.363	 -11.1998
 3815.305	 -11.0075
 3855.670	 -10.8430
 3896.462	 -10.6984
 3937.685	 -10.5543
 3979.345	 -10.3708
 4021.445	 -10.1115
 4063.991	 -9.7586
 4106.987	 -9.2995
 4150.438	 -8.7355
 4194.348	 -8.0667
 4238.723	 -7.3100
 4283.567	 -6.4880
 4328.887	 -5.6472
 4374.685	 -4.8479
 4420.968	 -4.1526
 4467.740	 -3.6031
 4515.008	 -3.2096
 4562.775	 -2.9650
 4611.048	 -2.8503
 4659.832	 -2.8493
 4709.131	 -2.9607
 4758.953	 -3.1912
 4809.301	 -3.5604
 4860.182	 -4.0857
 4911.602	 -4.7789
 4963.565	 -5.6276
 5016.078	 -6.5928
 5069.146	 -7.6141
 5122.776	 -8.6363
 5176.974	 -9.6358
 5231.745	 -10.5989
 5287.095	 -11.5244
 5343.031	 -12.3980
 5399.559	 -13.1737
 5456.685	 -13.8340
 5514.415	 -14.3452
 5572.756	 -14.7065
 5631.714	 -14.9190
 5691.296	 -15.0042
 5751.508	 -14.9959
 5812.357	 -14.9341
 5873.851	 -14.8527
 5935.995	 -14.7831
 5998.795	 -14.7413
 6062.261	 -14.7329
 6126.398	 -14.7570
 6191.213	 -14.8113
 6256.715	 -14.8945
 6322.909	 -15.0064
 6389.804	 -15.1495
 6457.406	 -15.3294
 6525.724	 -15.5538
 6594.764	 -15.8351
 6664.535	 -16.1845
 6735.043	 -16.6133
 6806.298	 -17.1287
 6878.307	 -17.7342
 6951.077	 -18.4255
 7024.618	 -19.1864
 7098.936	 -19.9685
 7174.041	 -20.6767
 7249.940	 -21.1647
 7326.643	 -21.2766
 7404.156	 -20.9318
 7482.490	 -20.1766
 7561.653	 -19.1429
 7641.653	 -17.9666
 7722.500	 -16.7683
 7804.201	 -15.6403
 7886.768	 -14.6724
 7970.207	 -13.9193
 8054.530	 -13.3809
 8139.744	 -13.0370
 8225.860	 -12.8508
 8312.888	 -12.7926
 8400.836	 -12.8477
 8489.714	 -13.0193
 8579.533	 -13.3268
 8670.302	 -13.7951
 8762.031	 -14.4428
 8854.731	 -15.2544
 8948.411	 -16.1682
 9043.083	 -17.0699
 9138.757	 -17.8459
 9235.441	 -18.4614
 9333.150	 -18.9109
 9431.893	 -19.2216
 9531.679	 -19.4219
 9632.521	 -19.5434
 9734.431	 -19.6241
 9837.418	 -19.6987
 9941.495	 -19.7938
10046.674	 -19.9205
10152.964	 -20.0842
10260.380	 -20.2945
10368.932	 -20.5629
10478.632	 -20.9047
10589.493	 -21.3412
10701.526	 -21.8884
10814.746	 -22.5425
10929.163	 -23.2607
11044.790	 -23.9587
11161.641	 -24.5321
11279.728	 -24.9087
11399.064	 -25.0710
11519.663	 -25.0486
11641.538	 -24.8992
11764.702	 -24.6948
11889.169	 -24.4975
12014.953	 -24.3321
12142.067	 -24.2074
12270.527	 -24.1457
12400.346	 -24.1769
12531.538	 -24.3223
12664.118	 -24.5852
12798.101	 -24.9394
12933.501	 -25.3384
13070.334	 -25.7193
13208.614	 -26.0295
13348.357	 -26.2449
13489.579	 -26.3969
13632.295	 -26.5491
13776.521	 -26.7510
13922.272	 -27.0047
14069.566	 -27.2906
14218.418	 -27.5980
14368.846	 -27.9276
14520.863	 -28.2869
14674.490	 -28.6746
14829.742	 -29.0544
14986.637	 -29.3538
15145.190	 -29.5322
15305.423	 -29.6389
15467.350	 -29.7658
15630.989	 -29.9772
15796.361	 -30.2569
15963.482	 -30.5379
16132.371	 -30.7631
16303.047	 -30.9171
16475.529	 -31.0389
16649.834	 -31.2056
16825.986	 -31.4800
17004.000	 -31.8561
17183.896	 -32.2506
17365.697	 -32.5270
17549.422	 -32.6149
17735.090	 -32.5900
17922.723	 -32.5536
18112.340	 -32.5567
18303.963	 -32.6213
18497.613	 -32.7865
18693.313	 -33.1161
18891.082	 -33.6718
19090.945	 -34.4769
19292.922	 -35.5015
19497.035	 -36.6378
19703.309	 -37.7069
19911.764	 -38.6545
20122.424	 -39.6052
20335.314	 -40.7654
20550.455	 -42.2791
20767.873	 -44.1382
20987.592	 -46.1798
21209.635	 -48.0944
21434.025	 -49.6376
21660.791	 -50.7813
21889.957	 -52.0062
22121.547	 -53.6433
22355.586	 -56.3034
22592.102	 -61.0031
22831.119	 -63.2112
23072.666	 -65.2501
23316.770	 -70.6695
