Smoothed Frequency Response
Resolution = 1/6 octave
Numpoints = 720
SamplingRate = 44100 Hz
Frequency(Hz)   Magnitude(dB)
   11.082	 -40.9492
   11.199	 -40.8774
   11.318	 -40.8039
   11.438	 -40.7274
   11.559	 -40.6417
   11.681	 -40.5385
   11.804	 -40.4169
   11.929	 -40.2699
   12.056	 -40.1218
   12.183	 -39.9727
   12.312	 -39.8226
   12.442	 -39.6715
   12.574	 -39.5194
   12.707	 -39.3665
   12.841	 -39.2126
   12.977	 -39.0580
   13.114	 -38.9026
   13.253	 -38.7464
   13.393	 -38.5896
   13.535	 -38.4321
   13.678	 -38.2741
   13.823	 -38.1156
   13.969	 -37.9566
   14.117	 -37.7972
   14.266	 -37.6376
   14.417	 -37.4777
   14.570	 -37.3177
   14.724	 -37.1576
   14.880	 -36.9975
   15.037	 -36.8376
   15.196	 -36.6778
   15.357	 -36.5184
   15.520	 -36.3594
   15.684	 -36.2009
   15.850	 -36.0431
   16.017	 -35.8860
   16.187	 -35.7299
   16.358	 -35.5748
   16.531	 -35.4208
   16.706	 -35.2682
   16.883	 -35.1170
   17.061	 -34.9675
   17.242	 -34.8198
   17.424	 -34.6741
   17.609	 -34.5305
   17.795	 -34.3893
   17.983	 -34.2506
   18.174	 -34.1147
   18.366	 -33.9818
   18.560	 -33.8520
   18.756	 -33.7257
   18.955	 -33.6031
   19.155	 -33.4844
   19.358	 -33.3699
   19.563	 -33.2599
   19.770	 -33.1547
   19.979	 -33.0545
   20.190	 -32.9596
   20.404	 -32.8704
   20.620	 -32.7868
   20.838	 -32.7087
   21.058	 -32.6358
   21.281	 -32.5677
   21.506	 -32.5041
   21.734	 -32.4445
   21.964	 -32.3884
   22.196	 -32.3353
   22.431	 -32.2848
   22.668	 -32.2363
   22.908	 -32.1894
   23.151	 -32.1437
   23.396	 -32.0991
   23.643	 -32.0555
   23.893	 -32.0129
   24.146	 -31.9711
   24.401	 -31.9302
   24.660	 -31.8900
   24.920	 -31.8504
   25.184	 -31.8113
   25.451	 -31.7726
   25.720	 -31.7343
   25.992	 -31.6961
   26.267	 -31.6580
   26.545	 -31.6197
   26.826	 -31.5812
   27.109	 -31.5423
   27.396	 -31.5028
   27.686	 -31.4625
   27.979	 -31.4213
   28.275	 -31.3789
   28.574	 -31.3351
   28.876	 -31.2897
   29.182	 -31.2424
   29.491	 -31.1930
   29.803	 -31.1412
   30.118	 -31.0867
   30.437	 -31.0292
   30.759	 -30.9689
   31.084	 -30.9057
   31.413	 -30.8398
   31.745	 -30.7712
   32.081	 -30.6998
   32.421	 -30.6258
   32.764	 -30.5492
   33.110	 -30.4701
   33.460	 -30.3888
   33.814	 -30.3052
   34.172	 -30.2195
   34.534	 -30.1317
   34.899	 -30.0418
   35.268	 -29.9496
   35.641	 -29.8555
   36.019	 -29.7594
   36.400	 -29.6615
   36.785	 -29.5621
   37.174	 -29.4613
   37.567	 -29.3592
   37.965	 -29.2561
   38.366	 -29.1521
   38.772	 -29.0475
   39.182	 -28.9426
   39.597	 -28.8376
   40.016	 -28.7327
   40.439	 -28.6283
   40.867	 -28.5244
   41.299	 -28.4209
   41.736	 -28.3179
   42.178	 -28.2153
   42.624	 -28.1131
   43.075	 -28.0114
   43.531	 -27.9101
   43.991	 -27.8092
   44.457	 -27.7087
   44.927	 -27.6085
   45.402	 -27.5087
   45.883	 -27.4092
   46.368	 -27.3103
   46.859	 -27.2121
   47.354	 -27.1147
   47.855	 -27.0181
   48.362	 -26.9223
   48.873	 -26.8274
   49.390	 -26.7335
   49.913	 -26.6406
   50.441	 -26.5488
   50.975	 -26.4589
   51.514	 -26.3720
   52.059	 -26.2893
   52.610	 -26.2113
   53.166	 -26.1385
   53.729	 -26.0710
   54.297	 -26.0089
   54.872	 -25.9524
   55.452	 -25.9013
   56.039	 -25.8555
   56.632	 -25.8146
   57.231	 -25.7776
   57.837	 -25.7432
   58.448	 -25.7101
   59.067	 -25.6774
   59.692	 -25.6442
   60.323	 -25.6098
   60.961	 -25.5734
   61.606	 -25.5344
   62.258	 -25.4924
   62.917	 -25.4469
   63.582	 -25.3973
   64.255	 -25.3432
   64.935	 -25.2845
   65.622	 -25.2210
   66.316	 -25.1529
   67.018	 -25.0806
   67.727	 -25.0046
   68.443	 -24.9255
   69.167	 -24.8441
   69.899	 -24.7612
   70.639	 -24.6778
   71.386	 -24.5967
   72.141	 -24.5204
   72.905	 -24.4508
   73.676	 -24.3892
   74.455	 -24.3357
   75.243	 -24.2905
   76.039	 -24.2533
   76.844	 -24.2242
   77.657	 -24.2027
   78.478	 -24.1883
   79.308	 -24.1799
   80.147	 -24.1759
   80.995	 -24.1744
   81.852	 -24.1739
   82.718	 -24.1739
   83.593	 -24.1744
   84.478	 -24.1755
   85.372	 -24.1771
   86.275	 -24.1792
   87.188	 -24.1817
   88.110	 -24.1846
   89.042	 -24.1878
   89.984	 -24.1912
   90.936	 -24.1948
   91.898	 -24.1984
   92.871	 -24.2020
   93.853	 -24.2055
   94.846	 -24.2090
   95.849	 -24.2123
   96.864	 -24.2154
   97.888	 -24.2184
   98.924	 -24.2212
   99.971	 -24.2238
  101.028	 -24.2262
  102.097	 -24.2285
  103.177	 -24.2307
  104.269	 -24.2327
  105.372	 -24.2347
  106.487	 -24.2365
  107.613	 -24.2382
  108.752	 -24.2398
  109.902	 -24.2414
  111.065	 -24.2430
  112.240	 -24.2446
  113.428	 -24.2462
  114.628	 -24.2480
  115.840	 -24.2500
  117.066	 -24.2522
  118.304	 -24.2547
  119.556	 -24.2574
  120.821	 -24.2606
  122.099	 -24.2642
  123.391	 -24.2685
  124.696	 -24.2738
  126.016	 -24.2805
  127.349	 -24.2888
  128.696	 -24.2986
  130.058	 -24.3099
  131.434	 -24.3225
  132.824	 -24.3358
  134.230	 -24.3493
  135.650	 -24.3625
  137.085	 -24.3746
  138.535	 -24.3853
  140.001	 -24.3940
  141.482	 -24.4008
  142.979	 -24.4058
  144.491	 -24.4096
  146.020	 -24.4125
  147.565	 -24.4153
  149.126	 -24.4183
  150.704	 -24.4220
  152.298	 -24.4268
  153.910	 -24.4327
  155.538	 -24.4396
  157.183	 -24.4473
  158.846	 -24.4554
  160.527	 -24.4631
  162.225	 -24.4700
  163.942	 -24.4755
  165.676	 -24.4794
  167.429	 -24.4815
  169.200	 -24.4819
  170.990	 -24.4803
  172.799	 -24.4766
  174.627	 -24.4706
  176.475	 -24.4619
  178.342	 -24.4506
  180.229	 -24.4366
  182.136	 -24.4199
  184.063	 -24.4008
  186.010	 -24.3794
  187.978	 -24.3559
  189.967	 -24.3305
  191.976	 -24.3035
  194.007	 -24.2752
  196.060	 -24.2462
  198.134	 -24.2169
  200.230	 -24.1876
  202.349	 -24.1582
  204.490	 -24.1290
  206.653	 -24.0999
  208.839	 -24.0711
  211.049	 -24.0425
  213.282	 -24.0143
  215.538	 -23.9864
  217.818	 -23.9589
  220.123	 -23.9317
  222.452	 -23.9048
  224.805	 -23.8782
  227.184	 -23.8521
  229.587	 -23.8265
  232.016	 -23.8013
  234.471	 -23.7765
  236.951	 -23.7521
  239.458	 -23.7279
  241.992	 -23.7040
  244.552	 -23.6803
  247.139	 -23.6570
  249.754	 -23.6341
  252.396	 -23.6118
  255.066	 -23.5902
  257.765	 -23.5693
  260.492	 -23.5491
  263.248	 -23.5300
  266.033	 -23.5118
  268.848	 -23.4949
  271.692	 -23.4792
  274.566	 -23.4646
  277.471	 -23.4510
  280.407	 -23.4384
  283.373	 -23.4266
  286.371	 -23.4155
  289.401	 -23.4052
  292.463	 -23.3956
  295.557	 -23.3867
  298.684	 -23.3786
  301.844	 -23.3714
  305.037	 -23.3651
  308.265	 -23.3600
  311.526	 -23.3564
  314.822	 -23.3545
  318.152	 -23.3546
  321.518	 -23.3569
  324.920	 -23.3621
  328.358	 -23.3709
  331.832	 -23.3844
  335.342	 -23.4037
  338.890	 -23.4301
  342.475	 -23.4647
  346.099	 -23.5092
  349.760	 -23.5654
  353.461	 -23.6346
  357.200	 -23.7180
  360.979	 -23.8166
  364.798	 -23.9301
  368.658	 -24.0570
  372.558	 -24.1942
  376.500	 -24.3371
  380.483	 -24.4800
  384.508	 -24.6163
  388.576	 -24.7390
  392.687	 -24.8415
  396.842	 -24.9178
  401.040	 -24.9638
  405.283	 -24.9773
  409.571	 -24.9588
  413.904	 -24.9113
  418.283	 -24.8399
  422.708	 -24.7512
  427.181	 -24.6511
  431.700	 -24.5453
  436.267	 -24.4386
  440.883	 -24.3345
  445.547	 -24.2358
  450.261	 -24.1443
  455.025	 -24.0612
  459.839	 -23.9875
  464.704	 -23.9235
  469.620	 -23.8696
  474.589	 -23.8258
  479.610	 -23.7921
  484.684	 -23.7684
  489.811	 -23.7545
  494.994	 -23.7504
  500.230	 -23.7562
  505.523	 -23.7717
  510.871	 -23.7962
  516.276	 -23.8280
  521.738	 -23.8648
  527.258	 -23.9047
  532.836	 -23.9468
  538.473	 -23.9909
  544.170	 -24.0373
  549.927	 -24.0860
  555.745	 -24.1364
  561.625	 -24.1873
  567.567	 -24.2373
  573.572	 -24.2845
  579.640	 -24.3288
  585.772	 -24.3713
  591.969	 -24.4150
  598.232	 -24.4636
  604.561	 -24.5209
  610.958	 -24.5881
  617.421	 -24.6633
  623.953	 -24.7405
  630.555	 -24.8133
  637.226	 -24.8769
  643.967	 -24.9292
  650.780	 -24.9698
  657.666	 -24.9978
  664.623	 -25.0093
  671.655	 -24.9993
  678.761	 -24.9637
  685.942	 -24.9031
  693.199	 -24.8228
  700.533	 -24.7324
  707.944	 -24.6396
  715.434	 -24.5516
  723.003	 -24.4699
  730.652	 -24.3942
  738.383	 -24.3235
  746.194	 -24.2563
  754.089	 -24.1933
  762.067	 -24.1353
  770.129	 -24.0826
  778.277	 -24.0350
  786.511	 -23.9918
  794.832	 -23.9527
  803.241	 -23.9178
  811.739	 -23.8872
  820.327	 -23.8597
  829.006	 -23.8350
  837.777	 -23.8122
  846.640	 -23.7914
  855.597	 -23.7735
  864.649	 -23.7600
  873.797	 -23.7511
  883.042	 -23.7453
  892.384	 -23.7421
  901.825	 -23.7471
  911.366	 -23.7709
  921.008	 -23.8245
  930.752	 -23.9111
  940.599	 -24.0243
  950.551	 -24.1548
  960.607	 -24.2915
  970.770	 -24.4300
  981.041	 -24.5716
  991.420	 -24.7181
 1001.909	 -24.8708
 1012.509	 -25.0217
 1023.221	 -25.1545
 1034.046	 -25.2552
 1044.986	 -25.3248
 1056.042	 -25.3727
 1067.214	 -25.4113
 1078.505	 -25.4418
 1089.915	 -25.4535
 1101.446	 -25.4314
 1113.099	 -25.3601
 1124.875	 -25.2489
 1136.776	 -25.1334
 1148.803	 -25.0433
 1160.957	 -24.9928
 1173.240	 -24.9808
 1185.652	 -24.9986
 1198.196	 -25.0397
 1210.873	 -25.1086
 1223.683	 -25.2127
 1236.630	 -25.3659
 1249.713	 -25.5726
 1262.934	 -25.8141
 1276.296	 -26.0554
 1289.799	 -26.2507
 1303.444	 -26.3782
 1317.234	 -26.4474
 1331.170	 -26.4755
 1345.254	 -26.4713
 1359.486	 -26.4453
 1373.869	 -26.4046
 1388.404	 -26.3465
 1403.093	 -26.2791
 1417.938	 -26.2184
 1432.939	 -26.1809
 1448.099	 -26.1706
 1463.420	 -26.1763
 1478.902	 -26.1949
 1494.548	 -26.2244
 1510.360	 -26.2621
 1526.339	 -26.3032
 1542.488	 -26.3436
 1558.807	 -26.3855
 1575.299	 -26.4215
 1591.965	 -26.4421
 1608.807	 -26.4255
 1625.828	 -26.3594
 1643.029	 -26.2524
 1660.412	 -26.1266
 1677.978	 -25.9955
 1695.731	 -25.8629
 1713.671	 -25.7384
 1731.801	 -25.6294
 1750.123	 -25.5251
 1768.639	 -25.4079
 1787.351	 -25.2767
 1806.260	 -25.1539
 1825.370	 -25.0477
 1844.682	 -24.9558
 1864.198	 -24.8729
 1883.921	 -24.7913
 1903.852	 -24.6998
 1923.995	 -24.5924
 1944.350	 -24.4669
 1964.920	 -24.3303
 1985.709	 -24.2008
 2006.717	 -24.0892
 2027.948	 -23.9878
 2049.403	 -23.8879
 2071.085	 -23.7869
 2092.996	 -23.6988
 2115.139	 -23.6325
 2137.517	 -23.5928
 2160.131	 -23.5927
 2182.985	 -23.6280
 2206.080	 -23.6882
 2229.420	 -23.7554
 2253.007	 -23.8130
 2276.843	 -23.8567
 2300.931	 -23.8944
 2325.274	 -23.9363
 2349.875	 -23.9646
 2374.736	 -23.9626
 2399.860	 -23.9207
 2425.250	 -23.8513
 2450.908	 -23.7786
 2476.838	 -23.7159
 2503.042	 -23.6734
 2529.524	 -23.6501
 2556.286	 -23.6457
 2583.330	 -23.6564
 2610.661	 -23.6750
 2638.281	 -23.6959
 2666.194	 -23.7217
 2694.401	 -23.7519
 2722.907	 -23.7635
 2751.715	 -23.7394
 2780.827	 -23.6729
 2810.247	 -23.5659
 2839.979	 -23.4182
 2870.025	 -23.2274
 2900.389	 -22.9950
 2931.074	 -22.7353
 2962.084	 -22.4581
 2993.422	 -22.1791
 3025.092	 -21.9065
 3057.097	 -21.6373
 3089.440	 -21.3702
 3122.125	 -21.1045
 3155.156	 -20.8446
 3188.537	 -20.6049
 3222.271	 -20.3841
 3256.362	 -20.1657
 3290.813	 -19.9315
 3325.629	 -19.6781
 3360.813	 -19.4108
 3396.369	 -19.1416
 3432.302	 -18.8783
 3468.615	 -18.6251
 3505.312	 -18.3817
 3542.397	 -18.1437
 3579.875	 -17.8990
 3617.749	 -17.6399
 3656.023	 -17.3700
 3694.703	 -17.0951
 3733.792	 -16.8067
 3773.294	 -16.4943
 3813.215	 -16.1531
 3853.557	 -15.7864
 3894.327	 -15.3803
 3935.528	 -14.8981
 3977.165	 -14.3137
 4019.242	 -13.6516
 4061.764	 -12.9274
 4104.737	 -12.1300
 4148.164	 -11.2446
 4192.050	 -10.2349
 4236.400	 -9.1320
 4281.221	 -8.0669
 4326.515	 -7.1520
 4372.288	 -6.4296
 4418.545	 -5.9065
 4465.292	 -5.5537
 4512.534	 -5.3403
 4560.275	 -5.2459
 4608.521	 -5.2649
 4657.278	 -5.4133
 4706.551	 -5.7228
 4756.345	 -6.2211
 4806.666	 -6.9261
 4857.519	 -7.8249
 4908.910	 -8.8568
 4960.845	 -9.9558
 5013.330	 -11.0922
 5066.369	 -12.2125
 5119.970	 -13.2774
 5174.138	 -14.2250
 5228.878	 -14.9997
 5284.198	 -15.5931
 5340.104	 -16.0585
 5396.601	 -16.4428
 5453.695	 -16.7738
 5511.394	 -17.0345
 5569.703	 -17.2397
 5628.628	 -17.4217
 5688.178	 -17.5969
 5748.357	 -17.7721
 5809.173	 -17.9571
 5870.632	 -18.1555
 5932.742	 -18.3659
 5995.509	 -18.5731
 6058.939	 -18.7769
 6123.041	 -18.9756
 6187.821	 -19.1792
 6253.287	 -19.3984
 6319.445	 -19.6519
 6386.303	 -19.9508
 6453.868	 -20.3010
 6522.148	 -20.7114
 6591.150	 -21.1806
 6660.883	 -21.7033
 6731.353	 -22.2809
 6802.569	 -22.9178
 6874.538	 -23.6194
 6947.269	 -24.3851
 7020.769	 -25.2057
 7095.046	 -26.0620
 7170.110	 -26.9395
 7245.968	 -27.8170
 7322.628	 -28.6650
 7400.100	 -29.3861
 7478.390	 -29.8588
 7557.510	 -30.0323
 7637.466	 -29.9323
 7718.268	 -29.6291
 7799.925	 -29.1925
 7882.446	 -28.6900
 7965.840	 -28.1863
 8050.116	 -27.7258
 8135.284	 -27.3264
 8221.354	 -26.9895
 8308.333	 -26.7023
 8396.232	 -26.4525
 8485.063	 -26.2234
 8574.832	 -25.9994
 8665.551	 -25.7567
 8757.230	 -25.4669
 8849.879	 -25.0982
 8943.509	 -24.6302
 9038.128	 -24.0664
 9133.749	 -23.4412
 9230.382	 -22.8132
 9328.036	 -22.2377
 9426.725	 -21.7544
 9526.456	 -21.3799
 9627.243	 -21.1132
 9729.097	 -20.9477
 9832.028	 -20.8785
 9936.048	 -20.9085
10041.169	 -21.0461
10147.401	 -21.3038
10254.758	 -21.6888
10363.250	 -22.1999
10472.891	 -22.8225
10583.690	 -23.5278
10695.663	 -24.2853
10808.820	 -25.0690
10923.175	 -25.8627
11038.738	 -26.6517
11155.525	 -27.4024
11273.547	 -28.0648
11392.818	 -28.5735
11513.351	 -28.8695
11635.159	 -28.9137
11758.256	 -28.7085
11882.654	 -28.2868
12008.370	 -27.7359
12135.415	 -27.1638
12263.804	 -26.6555
12393.552	 -26.2407
12524.672	 -25.9153
12657.179	 -25.6655
12791.089	 -25.4876
12926.415	 -25.3857
13063.172	 -25.3665
13201.377	 -25.4305
13341.044	 -25.5695
13482.188	 -25.7558
13624.826	 -25.9347
13768.973	 -26.0357
13914.645	 -26.0261
14061.857	 -25.9423
14210.628	 -25.8484
14360.973	 -25.7822
14512.907	 -25.7569
14666.449	 -25.7730
14821.616	 -25.8332
14978.425	 -25.9412
15136.893	 -26.0997
15297.036	 -26.3077
15458.875	 -26.5614
15622.425	 -26.8501
15787.706	 -27.1505
15954.735	 -27.4339
16123.532	 -27.6788
16294.114	 -27.8900
16466.502	 -28.0830
16640.713	 -28.2693
16816.766	 -28.4650
16994.682	 -28.6878
17174.482	 -28.9560
17356.182	 -29.2927
17539.807	 -29.7237
17725.373	 -30.2619
17912.902	 -30.8974
18102.414	 -31.6103
18293.934	 -32.3914
18487.479	 -33.2578
18683.070	 -34.2476
18880.732	 -35.3990
19080.484	 -36.7470
19282.350	 -38.3246
19486.352	 -40.1553
19692.512	 -42.2317
19900.854	 -44.4817
20111.398	 -46.8258
20324.172	 -49.1097
20539.195	 -58.3075
20756.494	 -60.3437
20976.092	 -62.2300
21198.014	 -63.9310
21422.281	 -65.4920
