Smoothed Frequency Response
Resolution = 1/6 octave
Numpoints = 720
SamplingRate = 44100 Hz
Frequency(Hz)   Magnitude(dB)
   11.082	 -44.8739
   11.199	 -44.8197
   11.318	 -44.7644
   11.438	 -44.7069
   11.559	 -44.6425
   11.681	 -44.5647
   11.804	 -44.4728
   11.929	 -44.3615
   12.056	 -44.2494
   12.183	 -44.1366
   12.312	 -44.0231
   12.442	 -43.9090
   12.574	 -43.7944
   12.707	 -43.6791
   12.841	 -43.5632
   12.977	 -43.4469
   13.114	 -43.3300
   13.253	 -43.2127
   13.393	 -43.0949
   13.535	 -42.9768
   13.678	 -42.8584
   13.823	 -42.7396
   13.969	 -42.6205
   14.117	 -42.5013
   14.266	 -42.3819
   14.417	 -42.2624
   14.570	 -42.1428
   14.724	 -42.0233
   14.880	 -41.9038
   15.037	 -41.7844
   15.196	 -41.6652
   15.357	 -41.5463
   15.520	 -41.4278
   15.684	 -41.3096
   15.850	 -41.1919
   16.017	 -41.0749
   16.187	 -40.9585
   16.358	 -40.8428
   16.531	 -40.7280
   16.706	 -40.6141
   16.883	 -40.5013
   17.061	 -40.3897
   17.242	 -40.2794
   17.424	 -40.1704
   17.609	 -40.0630
   17.795	 -39.9572
   17.983	 -39.8532
   18.174	 -39.7512
   18.366	 -39.6512
   18.560	 -39.5534
   18.756	 -39.4581
   18.955	 -39.3652
   19.155	 -39.2751
   19.358	 -39.1879
   19.563	 -39.1038
   19.770	 -39.0229
   19.979	 -38.9455
   20.190	 -38.8718
   20.404	 -38.8019
   20.620	 -38.7359
   20.838	 -38.6736
   21.058	 -38.6148
   21.281	 -38.5592
   21.506	 -38.5065
   21.734	 -38.4563
   21.964	 -38.4085
   22.196	 -38.3625
   22.431	 -38.3180
   22.668	 -38.2747
   22.908	 -38.2323
   23.151	 -38.1907
   23.396	 -38.1498
   23.643	 -38.1095
   23.893	 -38.0701
   24.146	 -38.0313
   24.401	 -37.9934
   24.660	 -37.9564
   24.920	 -37.9202
   25.184	 -37.8850
   25.451	 -37.8507
   25.720	 -37.8174
   25.992	 -37.7851
   26.267	 -37.7539
   26.545	 -37.7238
   26.826	 -37.6949
   27.109	 -37.6672
   27.396	 -37.6407
   27.686	 -37.6155
   27.979	 -37.5916
   28.275	 -37.5691
   28.574	 -37.5481
   28.876	 -37.5285
   29.182	 -37.5105
   29.491	 -37.4940
   29.803	 -37.4792
   30.118	 -37.4661
   30.437	 -37.4546
   30.759	 -37.4444
   31.084	 -37.4352
   31.413	 -37.4268
   31.745	 -37.4194
   32.081	 -37.4132
   32.421	 -37.4082
   32.764	 -37.4047
   33.110	 -37.4028
   33.460	 -37.4025
   33.814	 -37.4040
   34.172	 -37.4076
   34.534	 -37.4135
   34.899	 -37.4221
   35.268	 -37.4334
   35.641	 -37.4470
   36.019	 -37.4628
   36.400	 -37.4804
   36.785	 -37.4993
   37.174	 -37.5194
   37.567	 -37.5401
   37.965	 -37.5611
   38.366	 -37.5819
   38.772	 -37.6020
   39.182	 -37.6208
   39.597	 -37.6380
   40.016	 -37.6528
   40.439	 -37.6646
   40.867	 -37.6730
   41.299	 -37.6773
   41.736	 -37.6773
   42.178	 -37.6728
   42.624	 -37.6635
   43.075	 -37.6495
   43.531	 -37.6307
   43.991	 -37.6070
   44.457	 -37.5786
   44.927	 -37.5457
   45.402	 -37.5083
   45.883	 -37.4665
   46.368	 -37.4205
   46.859	 -37.3700
   47.354	 -37.3149
   47.855	 -37.2552
   48.362	 -37.1906
   48.873	 -37.1211
   49.390	 -37.0465
   49.913	 -36.9665
   50.441	 -36.8812
   50.975	 -36.7900
   51.514	 -36.6920
   52.059	 -36.5861
   52.610	 -36.4711
   53.166	 -36.3459
   53.729	 -36.2095
   54.297	 -36.0613
   54.872	 -35.9009
   55.452	 -35.7283
   56.039	 -35.5437
   56.632	 -35.3478
   57.231	 -35.1419
   57.837	 -34.9277
   58.448	 -34.7076
   59.067	 -34.4839
   59.692	 -34.2592
   60.323	 -34.0363
   60.961	 -33.8178
   61.606	 -33.6065
   62.258	 -33.4040
   62.917	 -33.2115
   63.582	 -33.0296
   64.255	 -32.8586
   64.935	 -32.6987
   65.622	 -32.5497
   66.316	 -32.4116
   67.018	 -32.2839
   67.727	 -32.1659
   68.443	 -32.0570
   69.167	 -31.9564
   69.899	 -31.8639
   70.639	 -31.7796
   71.386	 -31.7049
   72.141	 -31.6411
   72.905	 -31.5894
   73.676	 -31.5498
   74.455	 -31.5221
   75.243	 -31.5055
   76.039	 -31.4993
   76.844	 -31.5030
   77.657	 -31.5157
   78.478	 -31.5365
   79.308	 -31.5639
   80.147	 -31.5959
   80.995	 -31.6304
   81.852	 -31.6656
   82.718	 -31.7008
   83.593	 -31.7360
   84.478	 -31.7708
   85.372	 -31.8053
   86.275	 -31.8391
   87.188	 -31.8724
   88.110	 -31.9050
   89.042	 -31.9369
   89.984	 -31.9683
   90.936	 -31.9991
   91.898	 -32.0289
   92.871	 -32.0571
   93.853	 -32.0832
   94.846	 -32.1068
   95.849	 -32.1279
   96.864	 -32.1464
   97.888	 -32.1625
   98.924	 -32.1761
   99.971	 -32.1876
  101.028	 -32.1971
  102.097	 -32.2051
  103.177	 -32.2122
  104.269	 -32.2191
  105.372	 -32.2266
  106.487	 -32.2348
  107.613	 -32.2440
  108.752	 -32.2540
  109.902	 -32.2650
  111.065	 -32.2768
  112.240	 -32.2891
  113.428	 -32.3016
  114.628	 -32.3141
  115.840	 -32.3263
  117.066	 -32.3382
  118.304	 -32.3495
  119.556	 -32.3602
  120.821	 -32.3703
  122.099	 -32.3797
  123.391	 -32.3885
  124.696	 -32.3968
  126.016	 -32.4048
  127.349	 -32.4125
  128.696	 -32.4202
  130.058	 -32.4277
  131.434	 -32.4352
  132.824	 -32.4426
  134.230	 -32.4498
  135.650	 -32.4570
  137.085	 -32.4640
  138.535	 -32.4708
  140.001	 -32.4775
  141.482	 -32.4840
  142.979	 -32.4904
  144.491	 -32.4968
  146.020	 -32.5035
  147.565	 -32.5106
  149.126	 -32.5181
  150.704	 -32.5260
  152.298	 -32.5340
  153.910	 -32.5418
  155.538	 -32.5490
  157.183	 -32.5552
  158.846	 -32.5602
  160.527	 -32.5637
  162.225	 -32.5657
  163.942	 -32.5662
  165.676	 -32.5651
  167.429	 -32.5626
  169.200	 -32.5589
  170.990	 -32.5543
  172.799	 -32.5491
  174.627	 -32.5437
  176.475	 -32.5383
  178.342	 -32.5329
  180.229	 -32.5275
  182.136	 -32.5219
  184.063	 -32.5161
  186.010	 -32.5100
  187.978	 -32.5036
  189.967	 -32.4972
  191.976	 -32.4906
  194.007	 -32.4839
  196.060	 -32.4771
  198.134	 -32.4702
  200.230	 -32.4631
  202.349	 -32.4558
  204.490	 -32.4482
  206.653	 -32.4401
  208.839	 -32.4313
  211.049	 -32.4217
  213.282	 -32.4113
  215.538	 -32.4001
  217.818	 -32.3885
  220.123	 -32.3764
  222.452	 -32.3640
  224.805	 -32.3514
  227.184	 -32.3388
  229.587	 -32.3262
  232.016	 -32.3137
  234.471	 -32.3014
  236.951	 -32.2894
  239.458	 -32.2778
  241.992	 -32.2666
  244.552	 -32.2558
  247.139	 -32.2454
  249.754	 -32.2355
  252.396	 -32.2261
  255.066	 -32.2172
  257.765	 -32.2088
  260.492	 -32.2008
  263.248	 -32.1930
  266.033	 -32.1853
  268.848	 -32.1776
  271.692	 -32.1699
  274.566	 -32.1621
  277.471	 -32.1542
  280.407	 -32.1462
  283.373	 -32.1381
  286.371	 -32.1301
  289.401	 -32.1222
  292.463	 -32.1147
  295.557	 -32.1076
  298.684	 -32.1009
  301.844	 -32.0950
  305.037	 -32.0899
  308.265	 -32.0860
  311.526	 -32.0835
  314.822	 -32.0828
  318.152	 -32.0843
  321.518	 -32.0881
  324.920	 -32.0943
  328.358	 -32.1029
  331.832	 -32.1138
  335.342	 -32.1266
  338.890	 -32.1410
  342.475	 -32.1564
  346.099	 -32.1722
  349.760	 -32.1879
  353.461	 -32.2028
  357.200	 -32.2165
  360.979	 -32.2286
  364.798	 -32.2385
  368.658	 -32.2462
  372.558	 -32.2514
  376.500	 -32.2541
  380.483	 -32.2543
  384.508	 -32.2520
  388.576	 -32.2474
  392.687	 -32.2404
  396.842	 -32.2310
  401.040	 -32.2194
  405.283	 -32.2059
  409.571	 -32.1908
  413.904	 -32.1744
  418.283	 -32.1572
  422.708	 -32.1394
  427.181	 -32.1210
  431.700	 -32.1018
  436.267	 -32.0813
  440.883	 -32.0593
  445.547	 -32.0357
  450.261	 -32.0104
  455.025	 -31.9836
  459.839	 -31.9564
  464.704	 -31.9295
  469.620	 -31.9027
  474.589	 -31.8755
  479.610	 -31.8476
  484.684	 -31.8194
  489.811	 -31.7923
  494.994	 -31.7674
  500.230	 -31.7455
  505.523	 -31.7270
  510.871	 -31.7118
  516.276	 -31.6991
  521.738	 -31.6890
  527.258	 -31.6815
  532.836	 -31.6777
  538.473	 -31.6776
  544.170	 -31.6795
  549.927	 -31.6816
  555.745	 -31.6827
  561.625	 -31.6814
  567.567	 -31.6764
  573.572	 -31.6663
  579.640	 -31.6500
  585.772	 -31.6266
  591.969	 -31.5965
  598.232	 -31.5606
  604.561	 -31.5207
  610.958	 -31.4785
  617.421	 -31.4351
  623.953	 -31.3909
  630.555	 -31.3456
  637.226	 -31.2995
  643.967	 -31.2535
  650.780	 -31.2079
  657.666	 -31.1624
  664.623	 -31.1166
  671.655	 -31.0706
  678.761	 -31.0251
  685.942	 -30.9803
  693.199	 -30.9374
  700.533	 -30.8974
  707.944	 -30.8613
  715.434	 -30.8300
  723.003	 -30.8041
  730.652	 -30.7847
  738.383	 -30.7725
  746.194	 -30.7690
  754.089	 -30.7742
  762.067	 -30.7873
  770.129	 -30.8074
  778.277	 -30.8349
  786.511	 -30.8697
  794.832	 -30.9109
  803.241	 -30.9566
  811.739	 -31.0030
  820.327	 -31.0451
  829.006	 -31.0787
  837.777	 -31.0968
  846.640	 -31.0941
  855.597	 -31.0655
  864.649	 -31.0068
  873.797	 -30.9163
  883.042	 -30.7969
  892.384	 -30.6542
  901.825	 -30.4965
  911.366	 -30.3321
  921.008	 -30.1654
  930.752	 -30.0023
  940.599	 -29.8453
  950.551	 -29.6998
  960.607	 -29.5708
  970.770	 -29.4589
  981.041	 -29.3645
  991.420	 -29.2835
 1001.909	 -29.2133
 1012.509	 -29.1516
 1023.221	 -29.0959
 1034.046	 -29.0444
 1044.986	 -28.9966
 1056.042	 -28.9526
 1067.214	 -28.9139
 1078.505	 -28.8813
 1089.915	 -28.8557
 1101.446	 -28.8393
 1113.099	 -28.8308
 1124.875	 -28.8312
 1136.776	 -28.8432
 1148.803	 -28.8657
 1160.957	 -28.9008
 1173.240	 -28.9498
 1185.652	 -29.0110
 1198.196	 -29.0759
 1210.873	 -29.1390
 1223.683	 -29.1990
 1236.630	 -29.2515
 1249.713	 -29.2906
 1262.934	 -29.3125
 1276.296	 -29.3193
 1289.799	 -29.3050
 1303.444	 -29.2722
 1317.234	 -29.2222
 1331.170	 -29.1581
 1345.254	 -29.0895
 1359.486	 -29.0240
 1373.869	 -28.9677
 1388.404	 -28.9234
 1403.093	 -28.8908
 1417.938	 -28.8766
 1432.939	 -28.8796
 1448.099	 -28.8935
 1463.420	 -28.9158
 1478.902	 -28.9504
 1494.548	 -28.9871
 1510.360	 -29.0288
 1526.339	 -29.0764
 1542.488	 -29.1276
 1558.807	 -29.1862
 1575.299	 -29.2516
 1591.965	 -29.3206
 1608.807	 -29.3899
 1625.828	 -29.4566
 1643.029	 -29.5235
 1660.412	 -29.5902
 1677.978	 -29.6495
 1695.731	 -29.6876
 1713.671	 -29.6891
 1731.801	 -29.6417
 1750.123	 -29.5549
 1768.639	 -29.4355
 1787.351	 -29.2853
 1806.260	 -29.1230
 1825.370	 -28.9585
 1844.682	 -28.8015
 1864.198	 -28.6519
 1883.921	 -28.5178
 1903.852	 -28.4039
 1923.995	 -28.3210
 1944.350	 -28.2652
 1964.920	 -28.2345
 1985.709	 -28.2289
 2006.717	 -28.2466
 2027.948	 -28.2836
 2049.403	 -28.3354
 2071.085	 -28.3840
 2092.996	 -28.4413
 2115.139	 -28.5030
 2137.517	 -28.5731
 2160.131	 -28.6417
 2182.985	 -28.7133
 2206.080	 -28.7798
 2229.420	 -28.8403
 2253.007	 -28.8984
 2276.843	 -28.9569
 2300.931	 -29.0233
 2325.274	 -29.0995
 2349.875	 -29.1733
 2374.736	 -29.2443
 2399.860	 -29.3064
 2425.250	 -29.3701
 2450.908	 -29.4443
 2476.838	 -29.5302
 2503.042	 -29.6276
 2529.524	 -29.7299
 2556.286	 -29.8355
 2583.330	 -29.9405
 2610.661	 -30.0493
 2638.281	 -30.1672
 2666.194	 -30.3003
 2694.401	 -30.4383
 2722.907	 -30.5736
 2751.715	 -30.6818
 2780.827	 -30.7424
 2810.247	 -30.7296
 2839.979	 -30.6479
 2870.025	 -30.4796
 2900.389	 -30.2228
 2931.074	 -29.8670
 2962.084	 -29.4271
 2993.422	 -28.9313
 3025.092	 -28.4153
 3057.097	 -27.9057
 3089.440	 -27.4168
 3122.125	 -26.9511
 3155.156	 -26.4965
 3188.537	 -26.0545
 3222.271	 -25.6253
 3256.362	 -25.2236
 3290.813	 -24.8512
 3325.629	 -24.5017
 3360.813	 -24.1667
 3396.369	 -23.8417
 3432.302	 -23.5223
 3468.615	 -23.2003
 3505.312	 -22.8725
 3542.397	 -22.5362
 3579.875	 -22.1875
 3617.749	 -21.8236
 3656.023	 -21.4473
 3694.703	 -21.0541
 3733.792	 -20.6554
 3773.294	 -20.2604
 3813.215	 -19.8701
 3853.557	 -19.4805
 3894.327	 -19.0933
 3935.528	 -18.7094
 3977.165	 -18.3336
 4019.242	 -17.9689
 4061.764	 -17.6182
 4104.737	 -17.2763
 4148.164	 -16.9401
 4192.050	 -16.5991
 4236.400	 -16.2579
 4281.221	 -15.9214
 4326.515	 -15.6022
 4372.288	 -15.3066
 4418.545	 -15.0386
 4465.292	 -14.7960
 4512.534	 -14.5793
 4560.275	 -14.3874
 4608.521	 -14.2197
 4657.278	 -14.0804
 4706.551	 -13.9769
 4756.345	 -13.9097
 4806.666	 -13.8811
 4857.519	 -13.8904
 4908.910	 -13.9412
 4960.845	 -14.0370
 5013.330	 -14.1816
 5066.369	 -14.3768
 5119.970	 -14.6292
 5174.138	 -14.9439
 5228.878	 -15.3277
 5284.198	 -15.7807
 5340.104	 -16.2989
 5396.601	 -16.8760
 5453.695	 -17.5096
 5511.394	 -18.1881
 5569.703	 -18.8990
 5628.628	 -19.6299
 5688.178	 -20.3651
 5748.357	 -21.0797
 5809.173	 -21.7346
 5870.632	 -22.2945
 5932.742	 -22.7526
 5995.509	 -23.1046
 6058.939	 -23.3771
 6123.041	 -23.5803
 6187.821	 -23.7325
 6253.287	 -23.8494
 6319.445	 -23.9567
 6386.303	 -24.0747
 6453.868	 -24.2166
 6522.148	 -24.3939
 6591.150	 -24.6203
 6660.883	 -24.9052
 6731.353	 -25.2493
 6802.569	 -25.6483
 6874.538	 -26.0906
 6947.269	 -26.5522
 7020.769	 -27.0032
 7095.046	 -27.4255
 7170.110	 -27.8121
 7245.968	 -28.1549
 7322.628	 -28.4536
 7400.100	 -28.7080
 7478.390	 -28.9141
 7557.510	 -29.0748
 7637.466	 -29.1932
 7718.268	 -29.2821
 7799.925	 -29.3622
 7882.446	 -29.4484
 7965.840	 -29.5584
 8050.116	 -29.6903
 8135.284	 -29.8285
 8221.354	 -29.9677
 8308.333	 -30.1202
 8396.232	 -30.2986
 8485.063	 -30.5236
 8574.832	 -30.8128
 8665.551	 -31.1736
 8757.230	 -31.6089
 8849.879	 -32.1014
 8943.509	 -32.6222
 9038.128	 -33.1620
 9133.749	 -33.7202
 9230.382	 -34.3027
 9328.036	 -34.8985
 9426.725	 -35.4674
 9526.456	 -35.9497
 9627.243	 -36.3160
 9729.097	 -36.5419
 9832.028	 -36.6317
 9936.048	 -36.6296
10041.169	 -36.5932
10147.401	 -36.5797
10254.758	 -36.6169
10363.250	 -36.7083
10472.891	 -36.8388
10583.690	 -36.9799
10695.663	 -37.1072
10808.820	 -37.2214
10923.175	 -37.3489
11038.738	 -37.5225
11155.525	 -37.7723
11273.547	 -38.0892
11392.818	 -38.4395
11513.351	 -38.7919
11635.159	 -39.1152
11758.256	 -39.4060
11882.654	 -39.6708
12008.370	 -39.8985
12135.415	 -40.0509
12263.804	 -40.0636
12393.552	 -39.8960
12524.672	 -39.5625
12657.179	 -39.1286
12791.089	 -38.6599
12926.415	 -38.2077
13063.172	 -37.8001
13201.377	 -37.4470
13341.044	 -37.1666
13482.188	 -36.9701
13624.826	 -36.8727
13768.973	 -36.8865
13914.645	 -37.0078
14061.857	 -37.2248
14210.628	 -37.5140
14360.973	 -37.8465
14512.907	 -38.2078
14666.449	 -38.6019
14821.616	 -39.0328
14978.425	 -39.4902
15136.893	 -39.9289
15297.036	 -40.2511
15458.875	 -40.3604
15622.425	 -40.2090
15787.706	 -39.8455
15954.735	 -39.3762
16123.532	 -38.8820
16294.114	 -38.4058
16466.502	 -37.9787
16640.713	 -37.6478
16816.766	 -37.4342
16994.682	 -37.3443
17174.482	 -37.3806
17356.182	 -37.5463
17539.807	 -37.8536
17725.373	 -38.3118
17912.902	 -38.9246
18102.414	 -39.7000
18293.934	 -40.6483
18487.479	 -41.7671
18683.070	 -43.0095
18880.732	 -44.2815
19080.484	 -45.4382
19282.350	 -46.5249
19486.352	 -47.6165
19692.512	 -48.7038
19900.854	 -49.7951
20111.398	 -50.8504
20324.172	 -51.6774
20539.195	 -59.2417
20756.494	 -59.5258
20976.092	 -59.6811
21198.014	 -59.8403
21422.281	 -60.0878
