Smoothed Frequency Response
Resolution = 1/6 octave
Numpoints = 720
SamplingRate = 44100 Hz
Frequency(Hz)   Magnitude(dB)
   11.082	 -25.9485
   11.199	 -25.8846
   11.318	 -25.8191
   11.438	 -25.7510
   11.559	 -25.6747
   11.681	 -25.5826
   11.804	 -25.4740
   11.929	 -25.3425
   12.056	 -25.2100
   12.183	 -25.0765
   12.312	 -24.9422
   12.442	 -24.8069
   12.574	 -24.6708
   12.707	 -24.5339
   12.841	 -24.3963
   12.977	 -24.2580
   13.114	 -24.1190
   13.253	 -23.9795
   13.393	 -23.8394
   13.535	 -23.6989
   13.678	 -23.5580
   13.823	 -23.4167
   13.969	 -23.2752
   14.117	 -23.1336
   14.266	 -22.9918
   14.417	 -22.8501
   14.570	 -22.7085
   14.724	 -22.5670
   14.880	 -22.4259
   15.037	 -22.2851
   15.196	 -22.1449
   15.357	 -22.0053
   15.520	 -21.8665
   15.684	 -21.7286
   15.850	 -21.5917
   16.017	 -21.4560
   16.187	 -21.3216
   16.358	 -21.1887
   16.531	 -21.0575
   16.706	 -20.9281
   16.883	 -20.8007
   17.061	 -20.6754
   17.242	 -20.5526
   17.424	 -20.4324
   17.609	 -20.3149
   17.795	 -20.2005
   17.983	 -20.0894
   18.174	 -19.9817
   18.366	 -19.8779
   18.560	 -19.7780
   18.756	 -19.6825
   18.955	 -19.5915
   19.155	 -19.5054
   19.358	 -19.4245
   19.563	 -19.3491
   19.770	 -19.2796
   19.979	 -19.2162
   20.190	 -19.1594
   20.404	 -19.1094
   20.620	 -19.0662
   20.838	 -19.0295
   21.058	 -18.9989
   21.281	 -18.9739
   21.506	 -18.9537
   21.734	 -18.9378
   21.964	 -18.9255
   22.196	 -18.9160
   22.431	 -18.9086
   22.668	 -18.9026
   22.908	 -18.8974
   23.151	 -18.8925
   23.396	 -18.8878
   23.643	 -18.8834
   23.893	 -18.8791
   24.146	 -18.8750
   24.401	 -18.8712
   24.660	 -18.8676
   24.920	 -18.8642
   25.184	 -18.8611
   25.451	 -18.8583
   25.720	 -18.8557
   25.992	 -18.8534
   26.267	 -18.8514
   26.545	 -18.8496
   26.826	 -18.8482
   27.109	 -18.8471
   27.396	 -18.8463
   27.686	 -18.8459
   27.979	 -18.8458
   28.275	 -18.8460
   28.574	 -18.8466
   28.876	 -18.8476
   29.182	 -18.8490
   29.491	 -18.8508
   29.803	 -18.8530
   30.118	 -18.8557
   30.437	 -18.8587
   30.759	 -18.8619
   31.084	 -18.8654
   31.413	 -18.8689
   31.745	 -18.8725
   32.081	 -18.8762
   32.421	 -18.8800
   32.764	 -18.8841
   33.110	 -18.8885
   33.460	 -18.8931
   33.814	 -18.8981
   34.172	 -18.9035
   34.534	 -18.9095
   34.899	 -18.9162
   35.268	 -18.9236
   35.641	 -18.9317
   36.019	 -18.9404
   36.400	 -18.9496
   36.785	 -18.9592
   37.174	 -18.9691
   37.567	 -18.9793
   37.965	 -18.9895
   38.366	 -18.9998
   38.772	 -19.0099
   39.182	 -19.0198
   39.597	 -19.0293
   40.016	 -19.0382
   40.439	 -19.0464
   40.867	 -19.0534
   41.299	 -19.0587
   41.736	 -19.0616
   42.178	 -19.0618
   42.624	 -19.0589
   43.075	 -19.0526
   43.531	 -19.0427
   43.991	 -19.0290
   44.457	 -19.0114
   44.927	 -18.9900
   45.402	 -18.9649
   45.883	 -18.9364
   46.368	 -18.9052
   46.859	 -18.8719
   47.354	 -18.8368
   47.855	 -18.8004
   48.362	 -18.7633
   48.873	 -18.7258
   49.390	 -18.6886
   49.913	 -18.6521
   50.441	 -18.6171
   50.975	 -18.5845
   51.514	 -18.5551
   52.059	 -18.5297
   52.610	 -18.5084
   53.166	 -18.4914
   53.729	 -18.4785
   54.297	 -18.4697
   54.872	 -18.4646
   55.452	 -18.4630
   56.039	 -18.4645
   56.632	 -18.4687
   57.231	 -18.4746
   57.837	 -18.4818
   58.448	 -18.4895
   59.067	 -18.4977
   59.692	 -18.5064
   60.323	 -18.5157
   60.961	 -18.5254
   61.606	 -18.5357
   62.258	 -18.5464
   62.917	 -18.5576
   63.582	 -18.5692
   64.255	 -18.5813
   64.935	 -18.5939
   65.622	 -18.6070
   66.316	 -18.6205
   67.018	 -18.6344
   67.727	 -18.6488
   68.443	 -18.6635
   69.167	 -18.6785
   69.899	 -18.6937
   70.639	 -18.7091
   71.386	 -18.7245
   72.141	 -18.7396
   72.905	 -18.7544
   73.676	 -18.7688
   74.455	 -18.7827
   75.243	 -18.7960
   76.039	 -18.8088
   76.844	 -18.8209
   77.657	 -18.8326
   78.478	 -18.8436
   79.308	 -18.8542
   80.147	 -18.8643
   80.995	 -18.8741
   81.852	 -18.8835
   82.718	 -18.8925
   83.593	 -18.9012
   84.478	 -18.9095
   85.372	 -18.9174
   86.275	 -18.9251
   87.188	 -18.9324
   88.110	 -18.9395
   89.042	 -18.9464
   89.984	 -18.9531
   90.936	 -18.9597
   91.898	 -18.9663
   92.871	 -18.9728
   93.853	 -18.9793
   94.846	 -18.9859
   95.849	 -18.9925
   96.864	 -18.9992
   97.888	 -19.0059
   98.924	 -19.0127
   99.971	 -19.0195
  101.028	 -19.0264
  102.097	 -19.0333
  103.177	 -19.0400
  104.269	 -19.0465
  105.372	 -19.0527
  106.487	 -19.0586
  107.613	 -19.0643
  108.752	 -19.0696
  109.902	 -19.0748
  111.065	 -19.0796
  112.240	 -19.0843
  113.428	 -19.0889
  114.628	 -19.0934
  115.840	 -19.0981
  117.066	 -19.1028
  118.304	 -19.1078
  119.556	 -19.1129
  120.821	 -19.1183
  122.099	 -19.1237
  123.391	 -19.1293
  124.696	 -19.1349
  126.016	 -19.1406
  127.349	 -19.1463
  128.696	 -19.1520
  130.058	 -19.1576
  131.434	 -19.1630
  132.824	 -19.1684
  134.230	 -19.1735
  135.650	 -19.1782
  137.085	 -19.1825
  138.535	 -19.1863
  140.001	 -19.1895
  141.482	 -19.1919
  142.979	 -19.1934
  144.491	 -19.1937
  146.020	 -19.1926
  147.565	 -19.1898
  149.126	 -19.1853
  150.704	 -19.1791
  152.298	 -19.1714
  153.910	 -19.1626
  155.538	 -19.1529
  157.183	 -19.1425
  158.846	 -19.1315
  160.527	 -19.1201
  162.225	 -19.1084
  163.942	 -19.0967
  165.676	 -19.0850
  167.429	 -19.0734
  169.200	 -19.0617
  170.990	 -19.0497
  172.799	 -19.0373
  174.627	 -19.0242
  176.475	 -19.0105
  178.342	 -18.9963
  180.229	 -18.9816
  182.136	 -18.9664
  184.063	 -18.9509
  186.010	 -18.9351
  187.978	 -18.9191
  189.967	 -18.9028
  191.976	 -18.8864
  194.007	 -18.8695
  196.060	 -18.8521
  198.134	 -18.8339
  200.230	 -18.8149
  202.349	 -18.7950
  204.490	 -18.7743
  206.653	 -18.7528
  208.839	 -18.7305
  211.049	 -18.7074
  213.282	 -18.6837
  215.538	 -18.6596
  217.818	 -18.6354
  220.123	 -18.6114
  222.452	 -18.5882
  224.805	 -18.5664
  227.184	 -18.5467
  229.587	 -18.5295
  232.016	 -18.5152
  234.471	 -18.5037
  236.951	 -18.4948
  239.458	 -18.4883
  241.992	 -18.4837
  244.552	 -18.4804
  247.139	 -18.4776
  249.754	 -18.4745
  252.396	 -18.4703
  255.066	 -18.4641
  257.765	 -18.4554
  260.492	 -18.4440
  263.248	 -18.4298
  266.033	 -18.4123
  268.848	 -18.3909
  271.692	 -18.3652
  274.566	 -18.3354
  277.471	 -18.3020
  280.407	 -18.2654
  283.373	 -18.2262
  286.371	 -18.1882
  289.401	 -18.1558
  292.463	 -18.1341
  295.557	 -18.1284
  298.684	 -18.1434
  301.844	 -18.1825
  305.037	 -18.2462
  308.265	 -18.3324
  311.526	 -18.4379
  314.822	 -18.5586
  318.152	 -18.6896
  321.518	 -18.8235
  324.920	 -18.9519
  328.358	 -19.0648
  331.832	 -19.1549
  335.342	 -19.2160
  338.890	 -19.2455
  342.475	 -19.2448
  346.099	 -19.2193
  349.760	 -19.1759
  353.461	 -19.1203
  357.200	 -19.0572
  360.979	 -18.9905
  364.798	 -18.9225
  368.658	 -18.8546
  372.558	 -18.7877
  376.500	 -18.7223
  380.483	 -18.6587
  384.508	 -18.5970
  388.576	 -18.5375
  392.687	 -18.4803
  396.842	 -18.4251
  401.040	 -18.3714
  405.283	 -18.3184
  409.571	 -18.2649
  413.904	 -18.2100
  418.283	 -18.1532
  422.708	 -18.0942
  427.181	 -18.0332
  431.700	 -17.9707
  436.267	 -17.9073
  440.883	 -17.8440
  445.547	 -17.7812
  450.261	 -17.7193
  455.025	 -17.6582
  459.839	 -17.5972
  464.704	 -17.5359
  469.620	 -17.4739
  474.589	 -17.4109
  479.610	 -17.3461
  484.684	 -17.2785
  489.811	 -17.2075
  494.994	 -17.1333
  500.230	 -17.0580
  505.523	 -16.9847
  510.871	 -16.9164
  516.276	 -16.8553
  521.738	 -16.8011
  527.258	 -16.7531
  532.836	 -16.7108
  538.473	 -16.6750
  544.170	 -16.6482
  549.927	 -16.6351
  555.745	 -16.6426
  561.625	 -16.6814
  567.567	 -16.7561
  573.572	 -16.8629
  579.640	 -16.9974
  585.772	 -17.1558
  591.969	 -17.3423
  598.232	 -17.5622
  604.561	 -17.8153
  610.958	 -18.0929
  617.421	 -18.3765
  623.953	 -18.6375
  630.555	 -18.8472
  637.226	 -18.9893
  643.967	 -19.0652
  650.780	 -19.0902
  657.666	 -19.0739
  664.623	 -19.0128
  671.655	 -18.9084
  678.761	 -18.7690
  685.942	 -18.6121
  693.199	 -18.4525
  700.533	 -18.2955
  707.944	 -18.1390
  715.434	 -17.9813
  723.003	 -17.8183
  730.652	 -17.6494
  738.383	 -17.4750
  746.194	 -17.2978
  754.089	 -17.1176
  762.067	 -16.9363
  770.129	 -16.7573
  778.277	 -16.5835
  786.511	 -16.4168
  794.832	 -16.2578
  803.241	 -16.1061
  811.739	 -15.9605
  820.327	 -15.8177
  829.006	 -15.6818
  837.777	 -15.5535
  846.640	 -15.4364
  855.597	 -15.3379
  864.649	 -15.2786
  873.797	 -15.2868
  883.042	 -15.3730
  892.384	 -15.5228
  901.825	 -15.7114
  911.366	 -15.9198
  921.008	 -16.1409
  930.752	 -16.3774
  940.599	 -16.6280
  950.551	 -16.8818
  960.607	 -17.1230
  970.770	 -17.3120
  981.041	 -17.4125
  991.420	 -17.4118
 1001.909	 -17.3379
 1012.509	 -17.2456
 1023.221	 -17.1676
 1034.046	 -17.1064
 1044.986	 -17.0589
 1056.042	 -17.0244
 1067.214	 -16.9981
 1078.505	 -16.9706
 1089.915	 -16.9364
 1101.446	 -16.8945
 1113.099	 -16.8567
 1124.875	 -16.8315
 1136.776	 -16.8268
 1148.803	 -16.8323
 1160.957	 -16.8328
 1173.240	 -16.8132
 1185.652	 -16.7748
 1198.196	 -16.7224
 1210.873	 -16.6663
 1223.683	 -16.6156
 1236.630	 -16.5928
 1249.713	 -16.6074
 1262.934	 -16.6562
 1276.296	 -16.7324
 1289.799	 -16.8372
 1303.444	 -16.9709
 1317.234	 -17.1349
 1331.170	 -17.3197
 1345.254	 -17.5183
 1359.486	 -17.7174
 1373.869	 -17.8996
 1388.404	 -18.0378
 1403.093	 -18.1232
 1417.938	 -18.1644
 1432.939	 -18.1840
 1448.099	 -18.1912
 1463.420	 -18.1830
 1478.902	 -18.1538
 1494.548	 -18.1171
 1510.360	 -18.0860
 1526.339	 -18.0668
 1542.488	 -18.0662
 1558.807	 -18.0769
 1575.299	 -18.0876
 1591.965	 -18.0783
 1608.807	 -18.0454
 1625.828	 -18.0023
 1643.029	 -17.9637
 1660.412	 -17.9412
 1677.978	 -17.9407
 1695.731	 -17.9575
 1713.671	 -17.9816
 1731.801	 -18.0116
 1750.123	 -18.0580
 1768.639	 -18.1245
 1787.351	 -18.2220
 1806.260	 -18.3287
 1825.370	 -18.4300
 1844.682	 -18.5066
 1864.198	 -18.5485
 1883.921	 -18.5594
 1903.852	 -18.5476
 1923.995	 -18.5093
 1944.350	 -18.4489
 1964.920	 -18.3588
 1985.709	 -18.2383
 2006.717	 -18.0960
 2027.948	 -17.9506
 2049.403	 -17.8085
 2071.085	 -17.6816
 2092.996	 -17.5708
 2115.139	 -17.4666
 2137.517	 -17.3693
 2160.131	 -17.2742
 2182.985	 -17.1681
 2206.080	 -17.0593
 2229.420	 -16.9561
 2253.007	 -16.8737
 2276.843	 -16.8171
 2300.931	 -16.7767
 2325.274	 -16.7347
 2349.875	 -16.6832
 2374.736	 -16.6095
 2399.860	 -16.5169
 2425.250	 -16.4099
 2450.908	 -16.2972
 2476.838	 -16.1940
 2503.042	 -16.1036
 2529.524	 -16.0129
 2556.286	 -15.9155
 2583.330	 -15.8131
 2610.661	 -15.7138
 2638.281	 -15.6214
 2666.194	 -15.5361
 2694.401	 -15.4539
 2722.907	 -15.3747
 2751.715	 -15.2993
 2780.827	 -15.2288
 2810.247	 -15.1520
 2839.979	 -15.0653
 2870.025	 -14.9700
 2900.389	 -14.8726
 2931.074	 -14.7813
 2962.084	 -14.6922
 2993.422	 -14.6052
 3025.092	 -14.5107
 3057.097	 -14.4002
 3089.440	 -14.2655
 3122.125	 -14.1100
 3155.156	 -13.9405
 3188.537	 -13.7710
 3222.271	 -13.6081
 3256.362	 -13.4435
 3290.813	 -13.2672
 3325.629	 -13.0774
 3360.813	 -12.8775
 3396.369	 -12.6801
 3432.302	 -12.4867
 3468.615	 -12.2995
 3505.312	 -12.1108
 3542.397	 -11.9083
 3579.875	 -11.6834
 3617.749	 -11.4326
 3656.023	 -11.1519
 3694.703	 -10.8436
 3733.792	 -10.5131
 3773.294	 -10.1585
 3813.215	 -9.7699
 3853.557	 -9.3401
 3894.327	 -8.8721
 3935.528	 -8.3747
 3977.165	 -7.8577
 4019.242	 -7.3230
 4061.764	 -6.7606
 4104.737	 -6.1439
 4148.164	 -5.4617
 4192.050	 -4.7029
 4236.400	 -3.8492
 4281.221	 -2.9298
 4326.515	 -1.9652
 4372.288	 -0.9998
 4418.545	 -0.0595
 4465.292	 0.7941
 4512.534	 1.5055
 4560.275	 2.0443
 4608.521	 2.4127
 4657.278	 2.6306
 4706.551	 2.7173
 4756.345	 2.6864
 4806.666	 2.5375
 4857.519	 2.2578
 4908.910	 1.8307
 4960.845	 1.2303
 5013.330	 0.4520
 5066.369	 -0.4885
 5119.970	 -1.5179
 5174.138	 -2.5500
 5228.878	 -3.5289
 5284.198	 -4.4461
 5340.104	 -5.3081
 5396.601	 -6.1165
 5453.695	 -6.8942
 5511.394	 -7.6521
 5569.703	 -8.3947
 5628.628	 -9.1208
 5688.178	 -9.8289
 5748.357	 -10.5098
 5809.173	 -11.1521
 5870.632	 -11.7545
 5932.742	 -12.3115
 5995.509	 -12.8064
 6058.939	 -13.2434
 6123.041	 -13.6245
 6187.821	 -13.9541
 6253.287	 -14.2293
 6319.445	 -14.4539
 6386.303	 -14.6348
 6453.868	 -14.7806
 6522.148	 -14.8912
 6591.150	 -14.9730
 6660.883	 -15.0324
 6731.353	 -15.0771
 6802.569	 -15.1099
 6874.538	 -15.1334
 6947.269	 -15.1304
 7020.769	 -15.0700
 7095.046	 -14.9306
 7170.110	 -14.6918
 7245.968	 -14.3698
 7322.628	 -14.0023
 7400.100	 -13.6337
 7478.390	 -13.2976
 7557.510	 -13.0028
 7637.466	 -12.7550
 7718.268	 -12.5702
 7799.925	 -12.4682
 7882.446	 -12.4608
 7965.840	 -12.5555
 8050.116	 -12.7566
 8135.284	 -13.0625
 8221.354	 -13.4662
 8308.333	 -13.9481
 8396.232	 -14.4881
 8485.063	 -15.0716
 8574.832	 -15.6863
 8665.551	 -16.3095
 8757.230	 -16.8967
 8849.879	 -17.4105
 8943.509	 -17.8421
 9038.128	 -18.1987
 9133.749	 -18.4737
 9230.382	 -18.6654
 9328.036	 -18.7878
 9426.725	 -18.8834
 9526.456	 -18.9806
 9627.243	 -19.0712
 9729.097	 -19.1281
 9832.028	 -19.1359
 9936.048	 -19.1078
10041.169	 -19.0812
10147.401	 -19.0970
10254.758	 -19.1748
10363.250	 -19.3025
10472.891	 -19.4411
10583.690	 -19.5355
10695.663	 -19.5562
10808.820	 -19.5192
10923.175	 -19.4711
11038.738	 -19.4429
11155.525	 -19.4350
11273.547	 -19.4398
11392.818	 -19.4644
11513.351	 -19.5264
11635.159	 -19.6465
11758.256	 -19.8457
11882.654	 -20.1354
12008.370	 -20.5159
12135.415	 -20.9842
12263.804	 -21.5299
12393.552	 -22.1393
12524.672	 -22.7931
12657.179	 -23.4449
12791.089	 -24.0161
12926.415	 -24.4273
13063.172	 -24.6339
13201.377	 -24.6878
13341.044	 -24.6747
13482.188	 -24.6685
13624.826	 -24.7142
13768.973	 -24.8265
13914.645	 -24.9920
14061.857	 -25.1798
14210.628	 -25.3410
14360.973	 -25.4033
14512.907	 -25.2991
14666.449	 -25.0366
14821.616	 -24.7198
14978.425	 -24.4587
15136.893	 -24.3074
15297.036	 -24.2699
15458.875	 -24.3293
15622.425	 -24.4530
15787.706	 -24.6110
15954.735	 -24.8015
16123.532	 -25.0775
16294.114	 -25.5373
16466.502	 -26.2857
16640.713	 -27.3793
16816.766	 -28.7339
16994.682	 -30.0725
17174.482	 -31.0812
17356.182	 -31.6288
17539.807	 -31.8919
17725.373	 -32.0954
17912.902	 -32.4103
18102.414	 -32.9161
18293.934	 -33.5596
18487.479	 -34.1515
18683.070	 -34.5400
18880.732	 -34.8040
19080.484	 -35.1967
19282.350	 -35.9544
19486.352	 -37.1252
19692.512	 -38.5580
19900.854	 -40.0441
20111.398	 -41.3920
20324.172	 -42.4192
20539.195	 -50.2400
20756.494	 -51.0490
20976.092	 -52.1706
21198.014	 -53.8255
21422.281	 -55.9755
