Smoothed Frequency Response
Resolution = 1/6 octave
Numpoints = 720
SamplingRate = 44100 Hz
Frequency(Hz)   Magnitude(dB)
   11.082	 -48.8114
   11.199	 -48.7509
   11.318	 -48.6891
   11.438	 -48.6248
   11.559	 -48.5529
   11.681	 -48.4660
   11.804	 -48.3635
   11.929	 -48.2394
   12.056	 -48.1144
   12.183	 -47.9886
   12.312	 -47.8620
   12.442	 -47.7347
   12.574	 -47.6066
   12.707	 -47.4777
   12.841	 -47.3481
   12.977	 -47.2178
   13.114	 -47.0868
   13.253	 -46.9552
   13.393	 -46.8229
   13.535	 -46.6901
   13.678	 -46.5567
   13.823	 -46.4227
   13.969	 -46.2883
   14.117	 -46.1534
   14.266	 -46.0180
   14.417	 -45.8823
   14.570	 -45.7462
   14.724	 -45.6098
   14.880	 -45.4732
   15.037	 -45.3363
   15.196	 -45.1993
   15.357	 -45.0622
   15.520	 -44.9250
   15.684	 -44.7879
   15.850	 -44.6508
   16.017	 -44.5138
   16.187	 -44.3771
   16.358	 -44.2405
   16.531	 -44.1044
   16.706	 -43.9686
   16.883	 -43.8334
   17.061	 -43.6987
   17.242	 -43.5647
   17.424	 -43.4314
   17.609	 -43.2990
   17.795	 -43.1676
   17.983	 -43.0372
   18.174	 -42.9079
   18.366	 -42.7800
   18.560	 -42.6534
   18.756	 -42.5283
   18.955	 -42.4049
   19.155	 -42.2832
   19.358	 -42.1634
   19.563	 -42.0457
   19.770	 -41.9301
   19.979	 -41.8169
   20.190	 -41.7063
   20.404	 -41.5982
   20.620	 -41.4928
   20.838	 -41.3899
   21.058	 -41.2893
   21.281	 -41.1909
   21.506	 -41.0945
   21.734	 -40.9997
   21.964	 -40.9063
   22.196	 -40.8142
   22.431	 -40.7230
   22.668	 -40.6325
   22.908	 -40.5425
   23.151	 -40.4530
   23.396	 -40.3638
   23.643	 -40.2751
   23.893	 -40.1868
   24.146	 -40.0990
   24.401	 -40.0117
   24.660	 -39.9250
   24.920	 -39.8389
   25.184	 -39.7534
   25.451	 -39.6686
   25.720	 -39.5845
   25.992	 -39.5012
   26.267	 -39.4187
   26.545	 -39.3370
   26.826	 -39.2562
   27.109	 -39.1764
   27.396	 -39.0975
   27.686	 -39.0197
   27.979	 -38.9429
   28.275	 -38.8673
   28.574	 -38.7929
   28.876	 -38.7197
   29.182	 -38.6478
   29.491	 -38.5773
   29.803	 -38.5082
   30.118	 -38.4405
   30.437	 -38.3744
   30.759	 -38.3094
   31.084	 -38.2454
   31.413	 -38.1823
   31.745	 -38.1198
   32.081	 -38.0579
   32.421	 -37.9966
   32.764	 -37.9357
   33.110	 -37.8752
   33.460	 -37.8150
   33.814	 -37.7552
   34.172	 -37.6958
   34.534	 -37.6370
   34.899	 -37.5789
   35.268	 -37.5218
   35.641	 -37.4657
   36.019	 -37.4107
   36.400	 -37.3567
   36.785	 -37.3039
   37.174	 -37.2522
   37.567	 -37.2018
   37.965	 -37.1527
   38.366	 -37.1049
   38.772	 -37.0585
   39.182	 -37.0135
   39.597	 -36.9701
   40.016	 -36.9282
   40.439	 -36.8879
   40.867	 -36.8492
   41.299	 -36.8121
   41.736	 -36.7766
   42.178	 -36.7426
   42.624	 -36.7102
   43.075	 -36.6793
   43.531	 -36.6499
   43.991	 -36.6220
   44.457	 -36.5956
   44.927	 -36.5707
   45.402	 -36.5473
   45.883	 -36.5254
   46.368	 -36.5052
   46.859	 -36.4868
   47.354	 -36.4701
   47.855	 -36.4552
   48.362	 -36.4423
   48.873	 -36.4314
   49.390	 -36.4225
   49.913	 -36.4157
   50.441	 -36.4110
   50.975	 -36.4085
   51.514	 -36.4080
   52.059	 -36.4098
   52.610	 -36.4141
   53.166	 -36.4215
   53.729	 -36.4322
   54.297	 -36.4465
   54.872	 -36.4648
   55.452	 -36.4869
   56.039	 -36.5131
   56.632	 -36.5431
   57.231	 -36.5769
   57.837	 -36.6140
   58.448	 -36.6540
   59.067	 -36.6956
   59.692	 -36.7378
   60.323	 -36.7792
   60.961	 -36.8180
   61.606	 -36.8518
   62.258	 -36.8783
   62.917	 -36.8956
   63.582	 -36.9023
   64.255	 -36.8976
   64.935	 -36.8811
   65.622	 -36.8527
   66.316	 -36.8126
   67.018	 -36.7615
   67.727	 -36.7009
   68.443	 -36.6326
   69.167	 -36.5592
   69.899	 -36.4832
   70.639	 -36.4071
   71.386	 -36.3326
   72.141	 -36.2612
   72.905	 -36.1938
   73.676	 -36.1311
   74.455	 -36.0735
   75.243	 -36.0211
   76.039	 -35.9738
   76.844	 -35.9316
   77.657	 -35.8941
   78.478	 -35.8608
   79.308	 -35.8309
   80.147	 -35.8039
   80.995	 -35.7792
   81.852	 -35.7566
   82.718	 -35.7362
   83.593	 -35.7179
   84.478	 -35.7016
   85.372	 -35.6872
   86.275	 -35.6746
   87.188	 -35.6636
   88.110	 -35.6541
   89.042	 -35.6460
   89.984	 -35.6391
   90.936	 -35.6333
   91.898	 -35.6285
   92.871	 -35.6246
   93.853	 -35.6214
   94.846	 -35.6189
   95.849	 -35.6172
   96.864	 -35.6161
   97.888	 -35.6156
   98.924	 -35.6157
   99.971	 -35.6163
  101.028	 -35.6173
  102.097	 -35.6188
  103.177	 -35.6205
  104.269	 -35.6226
  105.372	 -35.6248
  106.487	 -35.6274
  107.613	 -35.6302
  108.752	 -35.6334
  109.902	 -35.6368
  111.065	 -35.6405
  112.240	 -35.6446
  113.428	 -35.6492
  114.628	 -35.6545
  115.840	 -35.6606
  117.066	 -35.6675
  118.304	 -35.6752
  119.556	 -35.6838
  120.821	 -35.6931
  122.099	 -35.7030
  123.391	 -35.7134
  124.696	 -35.7242
  126.016	 -35.7351
  127.349	 -35.7458
  128.696	 -35.7563
  130.058	 -35.7665
  131.434	 -35.7763
  132.824	 -35.7861
  134.230	 -35.7963
  135.650	 -35.8073
  137.085	 -35.8195
  138.535	 -35.8331
  140.001	 -35.8482
  141.482	 -35.8647
  142.979	 -35.8823
  144.491	 -35.9003
  146.020	 -35.9184
  147.565	 -35.9362
  149.126	 -35.9532
  150.704	 -35.9692
  152.298	 -35.9837
  153.910	 -35.9965
  155.538	 -36.0077
  157.183	 -36.0174
  158.846	 -36.0259
  160.527	 -36.0339
  162.225	 -36.0419
  163.942	 -36.0504
  165.676	 -36.0596
  167.429	 -36.0698
  169.200	 -36.0809
  170.990	 -36.0930
  172.799	 -36.1061
  174.627	 -36.1204
  176.475	 -36.1357
  178.342	 -36.1523
  180.229	 -36.1700
  182.136	 -36.1887
  184.063	 -36.2079
  186.010	 -36.2274
  187.978	 -36.2467
  189.967	 -36.2654
  191.976	 -36.2833
  194.007	 -36.3001
  196.060	 -36.3154
  198.134	 -36.3288
  200.230	 -36.3402
  202.349	 -36.3496
  204.490	 -36.3574
  206.653	 -36.3642
  208.839	 -36.3704
  211.049	 -36.3767
  213.282	 -36.3829
  215.538	 -36.3890
  217.818	 -36.3950
  220.123	 -36.4008
  222.452	 -36.4068
  224.805	 -36.4128
  227.184	 -36.4188
  229.587	 -36.4246
  232.016	 -36.4298
  234.471	 -36.4344
  236.951	 -36.4385
  239.458	 -36.4424
  241.992	 -36.4466
  244.552	 -36.4512
  247.139	 -36.4565
  249.754	 -36.4624
  252.396	 -36.4689
  255.066	 -36.4760
  257.765	 -36.4836
  260.492	 -36.4917
  263.248	 -36.5003
  266.033	 -36.5092
  268.848	 -36.5181
  271.692	 -36.5269
  274.566	 -36.5356
  277.471	 -36.5441
  280.407	 -36.5525
  283.373	 -36.5607
  286.371	 -36.5689
  289.401	 -36.5771
  292.463	 -36.5855
  295.557	 -36.5941
  298.684	 -36.6028
  301.844	 -36.6115
  305.037	 -36.6203
  308.265	 -36.6291
  311.526	 -36.6382
  314.822	 -36.6476
  318.152	 -36.6573
  321.518	 -36.6672
  324.920	 -36.6771
  328.358	 -36.6871
  331.832	 -36.6972
  335.342	 -36.7078
  338.890	 -36.7188
  342.475	 -36.7301
  346.099	 -36.7416
  349.760	 -36.7530
  353.461	 -36.7642
  357.200	 -36.7749
  360.979	 -36.7849
  364.798	 -36.7941
  368.658	 -36.8022
  372.558	 -36.8092
  376.500	 -36.8149
  380.483	 -36.8194
  384.508	 -36.8225
  388.576	 -36.8244
  392.687	 -36.8252
  396.842	 -36.8250
  401.040	 -36.8240
  405.283	 -36.8221
  409.571	 -36.8196
  413.904	 -36.8163
  418.283	 -36.8124
  422.708	 -36.8080
  427.181	 -36.8034
  431.700	 -36.7987
  436.267	 -36.7941
  440.883	 -36.7896
  445.547	 -36.7854
  450.261	 -36.7815
  455.025	 -36.7777
  459.839	 -36.7743
  464.704	 -36.7716
  469.620	 -36.7695
  474.589	 -36.7683
  479.610	 -36.7677
  484.684	 -36.7677
  489.811	 -36.7681
  494.994	 -36.7689
  500.230	 -36.7703
  505.523	 -36.7727
  510.871	 -36.7764
  516.276	 -36.7817
  521.738	 -36.7880
  527.258	 -36.7952
  532.836	 -36.8031
  538.473	 -36.8119
  544.170	 -36.8218
  549.927	 -36.8328
  555.745	 -36.8449
  561.625	 -36.8576
  567.567	 -36.8706
  573.572	 -36.8834
  579.640	 -36.8959
  585.772	 -36.9082
  591.969	 -36.9199
  598.232	 -36.9309
  604.561	 -36.9408
  610.958	 -36.9493
  617.421	 -36.9560
  623.953	 -36.9612
  630.555	 -36.9650
  637.226	 -36.9674
  643.967	 -36.9683
  650.780	 -36.9672
  657.666	 -36.9640
  664.623	 -36.9591
  671.655	 -36.9526
  678.761	 -36.9450
  685.942	 -36.9362
  693.199	 -36.9259
  700.533	 -36.9141
  707.944	 -36.9007
  715.434	 -36.8861
  723.003	 -36.8721
  730.652	 -36.8611
  738.383	 -36.8557
  746.194	 -36.8582
  754.089	 -36.8703
  762.067	 -36.8931
  770.129	 -36.9278
  778.277	 -36.9734
  786.511	 -37.0273
  794.832	 -37.0851
  803.241	 -37.1419
  811.739	 -37.1932
  820.327	 -37.2346
  829.006	 -37.2624
  837.777	 -37.2731
  846.640	 -37.2645
  855.597	 -37.2363
  864.649	 -37.1906
  873.797	 -37.1314
  883.042	 -37.0632
  892.384	 -36.9907
  901.825	 -36.9169
  911.366	 -36.8450
  921.008	 -36.7760
  930.752	 -36.7104
  940.599	 -36.6484
  950.551	 -36.5893
  960.607	 -36.5336
  970.770	 -36.4794
  981.041	 -36.4258
  991.420	 -36.3722
 1001.909	 -36.3193
 1012.509	 -36.2674
 1023.221	 -36.2169
 1034.046	 -36.1673
 1044.986	 -36.1180
 1056.042	 -36.0706
 1067.214	 -36.0256
 1078.505	 -35.9830
 1089.915	 -35.9422
 1101.446	 -35.9036
 1113.099	 -35.8668
 1124.875	 -35.8328
 1136.776	 -35.8013
 1148.803	 -35.7719
 1160.957	 -35.7438
 1173.240	 -35.7140
 1185.652	 -35.6859
 1198.196	 -35.6608
 1210.873	 -35.6382
 1223.683	 -35.6187
 1236.630	 -35.6001
 1249.713	 -35.5833
 1262.934	 -35.5704
 1276.296	 -35.5616
 1289.799	 -35.5562
 1303.444	 -35.5577
 1317.234	 -35.5652
 1331.170	 -35.5783
 1345.254	 -35.5946
 1359.486	 -35.6108
 1373.869	 -35.6308
 1388.404	 -35.6562
 1403.093	 -35.6826
 1417.938	 -35.7088
 1432.939	 -35.7344
 1448.099	 -35.7579
 1463.420	 -35.7817
 1478.902	 -35.8054
 1494.548	 -35.8237
 1510.360	 -35.8400
 1526.339	 -35.8538
 1542.488	 -35.8673
 1558.807	 -35.8801
 1575.299	 -35.8915
 1591.965	 -35.9042
 1608.807	 -35.9175
 1625.828	 -35.9338
 1643.029	 -35.9492
 1660.412	 -35.9621
 1677.978	 -35.9720
 1695.731	 -35.9766
 1713.671	 -35.9796
 1731.801	 -35.9781
 1750.123	 -35.9757
 1768.639	 -35.9737
 1787.351	 -35.9699
 1806.260	 -35.9656
 1825.370	 -35.9596
 1844.682	 -35.9541
 1864.198	 -35.9501
 1883.921	 -35.9523
 1903.852	 -35.9640
 1923.995	 -35.9798
 1944.350	 -35.9992
 1964.920	 -36.0181
 1985.709	 -36.0382
 2006.717	 -36.0574
 2027.948	 -36.0783
 2049.403	 -36.1008
 2071.085	 -36.1218
 2092.996	 -36.1449
 2115.139	 -36.1712
 2137.517	 -36.1962
 2160.131	 -36.2193
 2182.985	 -36.2382
 2206.080	 -36.2545
 2229.420	 -36.2659
 2253.007	 -36.2723
 2276.843	 -36.2709
 2300.931	 -36.2628
 2325.274	 -36.2445
 2349.875	 -36.2148
 2374.736	 -36.1713
 2399.860	 -36.1123
 2425.250	 -36.0436
 2450.908	 -35.9647
 2476.838	 -35.8813
 2503.042	 -35.7921
 2529.524	 -35.6982
 2556.286	 -35.5980
 2583.330	 -35.4944
 2610.661	 -35.3882
 2638.281	 -35.2808
 2666.194	 -35.1721
 2694.401	 -35.0651
 2722.907	 -34.9525
 2751.715	 -34.8320
 2780.827	 -34.6990
 2810.247	 -34.5560
 2839.979	 -34.4007
 2870.025	 -34.2340
 2900.389	 -34.0549
 2931.074	 -33.8650
 2962.084	 -33.6596
 2993.422	 -33.4468
 3025.092	 -33.2265
 3057.097	 -33.0007
 3089.440	 -32.7713
 3122.125	 -32.5387
 3155.156	 -32.3007
 3188.537	 -32.0591
 3222.271	 -31.8172
 3256.362	 -31.5769
 3290.813	 -31.3396
 3325.629	 -31.1069
 3360.813	 -30.8767
 3396.369	 -30.6525
 3432.302	 -30.4334
 3468.615	 -30.2170
 3505.312	 -30.0013
 3542.397	 -29.7815
 3579.875	 -29.5584
 3617.749	 -29.3359
 3656.023	 -29.1107
 3694.703	 -28.8829
 3733.792	 -28.6510
 3773.294	 -28.4167
 3813.215	 -28.1788
 3853.557	 -27.9406
 3894.327	 -27.7017
 3935.528	 -27.4653
 3977.165	 -27.2364
 4019.242	 -27.0163
 4061.764	 -26.8064
 4104.737	 -26.5967
 4148.164	 -26.3752
 4192.050	 -26.1348
 4236.400	 -25.8614
 4281.221	 -25.5412
 4326.515	 -25.1569
 4372.288	 -24.7238
 4418.545	 -24.2493
 4465.292	 -23.7604
 4512.534	 -23.2719
 4560.275	 -22.8237
 4608.521	 -22.4401
 4657.278	 -22.1346
 4706.551	 -21.9138
 4756.345	 -21.7789
 4806.666	 -21.7333
 4857.519	 -21.7819
 4908.910	 -21.9279
 4960.845	 -22.1754
 5013.330	 -22.5222
 5066.369	 -22.9730
 5119.970	 -23.5142
 5174.138	 -24.1348
 5228.878	 -24.8075
 5284.198	 -25.5257
 5340.104	 -26.2839
 5396.601	 -27.0647
 5453.695	 -27.8552
 5511.394	 -28.6457
 5569.703	 -29.4275
 5628.628	 -30.1846
 5688.178	 -30.9062
 5748.357	 -31.5845
 5809.173	 -32.2135
 5870.632	 -32.7891
 5932.742	 -33.3097
 5995.509	 -33.7729
 6058.939	 -34.1856
 6123.041	 -34.5491
 6187.821	 -34.8763
 6253.287	 -35.1726
 6319.445	 -35.4421
 6386.303	 -35.6851
 6453.868	 -35.9024
 6522.148	 -36.0917
 6591.150	 -36.2509
 6660.883	 -36.3736
 6731.353	 -36.4553
 6802.569	 -36.4880
 6874.538	 -36.4661
 6947.269	 -36.3873
 7020.769	 -36.2545
 7095.046	 -36.0796
 7170.110	 -35.8751
 7245.968	 -35.6548
 7322.628	 -35.4317
 7400.100	 -35.2162
 7478.390	 -35.0160
 7557.510	 -34.8382
 7637.466	 -34.6873
 7718.268	 -34.5659
 7799.925	 -34.4760
 7882.446	 -34.4166
 7965.840	 -34.3845
 8050.116	 -34.3749
 8135.284	 -34.3820
 8221.354	 -34.4013
 8308.333	 -34.4286
 8396.232	 -34.4602
 8485.063	 -34.4935
 8574.832	 -34.5261
 8665.551	 -34.5549
 8757.230	 -34.5773
 8849.879	 -34.5892
 8943.509	 -34.5881
 9038.128	 -34.5770
 9133.749	 -34.5668
 9230.382	 -34.5720
 9328.036	 -34.6066
 9426.725	 -34.6806
 9526.456	 -34.7970
 9627.243	 -34.9552
 9729.097	 -35.1531
 9832.028	 -35.3903
 9936.048	 -35.6705
10041.169	 -35.9972
10147.401	 -36.3708
10254.758	 -36.7823
10363.250	 -37.2138
10472.891	 -37.6424
10583.690	 -38.0518
10695.663	 -38.4362
10808.820	 -38.7997
10923.175	 -39.1538
11038.738	 -39.5092
11155.525	 -39.8712
11273.547	 -40.2408
11392.818	 -40.6145
11513.351	 -40.9889
11635.159	 -41.3586
11758.256	 -41.7215
11882.654	 -42.0729
12008.370	 -42.4079
12135.415	 -42.7190
12263.804	 -42.9955
12393.552	 -43.2251
12524.672	 -43.3985
12657.179	 -43.5130
12791.089	 -43.5749
12926.415	 -43.5981
13063.172	 -43.5970
13201.377	 -43.5830
13341.044	 -43.5626
13482.188	 -43.5372
13624.826	 -43.5074
13768.973	 -43.4748
13914.645	 -43.4413
14061.857	 -43.4047
14210.628	 -43.3616
14360.973	 -43.3033
14512.907	 -43.2215
14666.449	 -43.1080
14821.616	 -42.9563
14978.425	 -42.7641
15136.893	 -42.5294
15297.036	 -42.2562
15458.875	 -41.9520
15622.425	 -41.6363
15787.706	 -41.3427
15954.735	 -41.1095
16123.532	 -40.9672
16294.114	 -40.9276
16466.502	 -40.9895
16640.713	 -41.1465
16816.766	 -41.3964
16994.682	 -41.7471
17174.482	 -42.2164
17356.182	 -42.8306
17539.807	 -43.6127
17725.373	 -44.5720
17912.902	 -45.6858
18102.414	 -46.8836
18293.934	 -48.0638
18487.479	 -49.1330
18683.070	 -50.0557
18880.732	 -50.8483
19080.484	 -51.5527
19282.350	 -52.2173
19486.352	 -52.8819
19692.512	 -53.5781
19900.854	 -54.3278
20111.398	 -55.1491
20324.172	 -55.9344
20539.195	 -56.7085
20756.494	 -57.4802
20976.092	 -58.3047
21198.014	 -59.2284
21422.281	 -60.2538
