Smoothed Frequency Response
Resolution = 1/6 octave
Numpoints = 720
SamplingRate = 44100 Hz
Frequency(Hz)   Magnitude(dB)
   11.082	 -50.6667
   11.199	 -50.6306
   11.318	 -50.5937
   11.438	 -50.5552
   11.559	 -50.5121
   11.681	 -50.4598
   11.804	 -50.3978
   11.929	 -50.3221
   12.056	 -50.2458
   12.183	 -50.1686
   12.312	 -50.0908
   12.442	 -50.0121
   12.574	 -49.9327
   12.707	 -49.8526
   12.841	 -49.7716
   12.977	 -49.6898
   13.114	 -49.6073
   13.253	 -49.5239
   13.393	 -49.4397
   13.535	 -49.3546
   13.678	 -49.2688
   13.823	 -49.1821
   13.969	 -49.0945
   14.117	 -49.0060
   14.266	 -48.9167
   14.417	 -48.8265
   14.570	 -48.7354
   14.724	 -48.6434
   14.880	 -48.5505
   15.037	 -48.4566
   15.196	 -48.3618
   15.357	 -48.2661
   15.520	 -48.1694
   15.684	 -48.0717
   15.850	 -47.9730
   16.017	 -47.8733
   16.187	 -47.7727
   16.358	 -47.6710
   16.531	 -47.5682
   16.706	 -47.4645
   16.883	 -47.3596
   17.061	 -47.2537
   17.242	 -47.1467
   17.424	 -47.0386
   17.609	 -46.9294
   17.795	 -46.8191
   17.983	 -46.7076
   18.174	 -46.5949
   18.366	 -46.4811
   18.560	 -46.3660
   18.756	 -46.2498
   18.955	 -46.1323
   19.155	 -46.0136
   19.358	 -45.8937
   19.563	 -45.7724
   19.770	 -45.6498
   19.979	 -45.5260
   20.190	 -45.4007
   20.404	 -45.2742
   20.620	 -45.1462
   20.838	 -45.0170
   21.058	 -44.8863
   21.281	 -44.7544
   21.506	 -44.6211
   21.734	 -44.4865
   21.964	 -44.3506
   22.196	 -44.2134
   22.431	 -44.0750
   22.668	 -43.9354
   22.908	 -43.7945
   23.151	 -43.6524
   23.396	 -43.5090
   23.643	 -43.3645
   23.893	 -43.2186
   24.146	 -43.0716
   24.401	 -42.9232
   24.660	 -42.7736
   24.920	 -42.6227
   25.184	 -42.4706
   25.451	 -42.3172
   25.720	 -42.1624
   25.992	 -42.0064
   26.267	 -41.8490
   26.545	 -41.6904
   26.826	 -41.5304
   27.109	 -41.3691
   27.396	 -41.2065
   27.686	 -41.0425
   27.979	 -40.8772
   28.275	 -40.7106
   28.574	 -40.5425
   28.876	 -40.3732
   29.182	 -40.2024
   29.491	 -40.0303
   29.803	 -39.8568
   30.118	 -39.6820
   30.437	 -39.5061
   30.759	 -39.3305
   31.084	 -39.1560
   31.413	 -38.9835
   31.745	 -38.8134
   32.081	 -38.6456
   32.421	 -38.4804
   32.764	 -38.3178
   33.110	 -38.1577
   33.460	 -38.0003
   33.814	 -37.8455
   34.172	 -37.6928
   34.534	 -37.5417
   34.899	 -37.3915
   35.268	 -37.2418
   35.641	 -37.0927
   36.019	 -36.9441
   36.400	 -36.7963
   36.785	 -36.6492
   37.174	 -36.5028
   37.567	 -36.3572
   37.965	 -36.2126
   38.366	 -36.0689
   38.772	 -35.9262
   39.182	 -35.7846
   39.597	 -35.6441
   40.016	 -35.5048
   40.439	 -35.3668
   40.867	 -35.2299
   41.299	 -35.0938
   41.736	 -34.9585
   42.178	 -34.8238
   42.624	 -34.6898
   43.075	 -34.5565
   43.531	 -34.4242
   43.991	 -34.2927
   44.457	 -34.1623
   44.927	 -34.0329
   45.402	 -33.9048
   45.883	 -33.7783
   46.368	 -33.6535
   46.859	 -33.5308
   47.354	 -33.4103
   47.855	 -33.2920
   48.362	 -33.1761
   48.873	 -33.0627
   49.390	 -32.9518
   49.913	 -32.8436
   50.441	 -32.7382
   50.975	 -32.6367
   51.514	 -32.5404
   52.059	 -32.4500
   52.610	 -32.3661
   53.166	 -32.2885
   53.729	 -32.2169
   54.297	 -32.1512
   54.872	 -32.0909
   55.452	 -32.0360
   56.039	 -31.9860
   56.632	 -31.9402
   57.231	 -31.8978
   57.837	 -31.8574
   58.448	 -31.8182
   59.067	 -31.7798
   59.692	 -31.7423
   60.323	 -31.7058
   60.961	 -31.6703
   61.606	 -31.6356
   62.258	 -31.6020
   62.917	 -31.5691
   63.582	 -31.5371
   64.255	 -31.5059
   64.935	 -31.4754
   65.622	 -31.4455
   66.316	 -31.4160
   67.018	 -31.3869
   67.727	 -31.3581
   68.443	 -31.3293
   69.167	 -31.3005
   69.899	 -31.2715
   70.639	 -31.2421
   71.386	 -31.2123
   72.141	 -31.1819
   72.905	 -31.1508
   73.676	 -31.1189
   74.455	 -31.0861
   75.243	 -31.0523
   76.039	 -31.0174
   76.844	 -30.9815
   77.657	 -30.9446
   78.478	 -30.9068
   79.308	 -30.8682
   80.147	 -30.8290
   80.995	 -30.7896
   81.852	 -30.7520
   82.718	 -30.7182
   83.593	 -30.6898
   84.478	 -30.6679
   85.372	 -30.6530
   86.275	 -30.6452
   87.188	 -30.6448
   88.110	 -30.6518
   89.042	 -30.6660
   89.984	 -30.6869
   90.936	 -30.7134
   91.898	 -30.7434
   92.871	 -30.7749
   93.853	 -30.8057
   94.846	 -30.8355
   95.849	 -30.8637
   96.864	 -30.8902
   97.888	 -30.9149
   98.924	 -30.9378
   99.971	 -30.9593
  101.028	 -30.9797
  102.097	 -30.9996
  103.177	 -31.0195
  104.269	 -31.0398
  105.372	 -31.0609
  106.487	 -31.0830
  107.613	 -31.1064
  108.752	 -31.1309
  109.902	 -31.1567
  111.065	 -31.1835
  112.240	 -31.2110
  113.428	 -31.2388
  114.628	 -31.2664
  115.840	 -31.2936
  117.066	 -31.3202
  118.304	 -31.3458
  119.556	 -31.3705
  120.821	 -31.3943
  122.099	 -31.4173
  123.391	 -31.4396
  124.696	 -31.4615
  126.016	 -31.4834
  127.349	 -31.5057
  128.696	 -31.5285
  130.058	 -31.5520
  131.434	 -31.5761
  132.824	 -31.6007
  134.230	 -31.6256
  135.650	 -31.6505
  137.085	 -31.6752
  138.535	 -31.6996
  140.001	 -31.7234
  141.482	 -31.7467
  142.979	 -31.7695
  144.491	 -31.7918
  146.020	 -31.8139
  147.565	 -31.8359
  149.126	 -31.8579
  150.704	 -31.8801
  152.298	 -31.9024
  153.910	 -31.9245
  155.538	 -31.9460
  157.183	 -31.9666
  158.846	 -31.9861
  160.527	 -32.0041
  162.225	 -32.0205
  163.942	 -32.0351
  165.676	 -32.0478
  167.429	 -32.0585
  169.200	 -32.0673
  170.990	 -32.0745
  172.799	 -32.0804
  174.627	 -32.0853
  176.475	 -32.0893
  178.342	 -32.0925
  180.229	 -32.0949
  182.136	 -32.0964
  184.063	 -32.0969
  186.010	 -32.0964
  187.978	 -32.0947
  189.967	 -32.0919
  191.976	 -32.0879
  194.007	 -32.0827
  196.060	 -32.0765
  198.134	 -32.0692
  200.230	 -32.0609
  202.349	 -32.0517
  204.490	 -32.0418
  206.653	 -32.0312
  208.839	 -32.0201
  211.049	 -32.0087
  213.282	 -31.9969
  215.538	 -31.9848
  217.818	 -31.9723
  220.123	 -31.9596
  222.452	 -31.9467
  224.805	 -31.9337
  227.184	 -31.9206
  229.587	 -31.9077
  232.016	 -31.8950
  234.471	 -31.8824
  236.951	 -31.8702
  239.458	 -31.8584
  241.992	 -31.8471
  244.552	 -31.8364
  247.139	 -31.8263
  249.754	 -31.8169
  252.396	 -31.8081
  255.066	 -31.8000
  257.765	 -31.7924
  260.492	 -31.7852
  263.248	 -31.7786
  266.033	 -31.7723
  268.848	 -31.7664
  271.692	 -31.7609
  274.566	 -31.7558
  277.471	 -31.7512
  280.407	 -31.7471
  283.373	 -31.7437
  286.371	 -31.7410
  289.401	 -31.7390
  292.463	 -31.7379
  295.557	 -31.7377
  298.684	 -31.7386
  301.844	 -31.7405
  305.037	 -31.7437
  308.265	 -31.7483
  311.526	 -31.7543
  314.822	 -31.7615
  318.152	 -31.7699
  321.518	 -31.7792
  324.920	 -31.7891
  328.358	 -31.7990
  331.832	 -31.8085
  335.342	 -31.8169
  338.890	 -31.8235
  342.475	 -31.8277
  346.099	 -31.8290
  349.760	 -31.8274
  353.461	 -31.8226
  357.200	 -31.8147
  360.979	 -31.8039
  364.798	 -31.7904
  368.658	 -31.7743
  372.558	 -31.7560
  376.500	 -31.7361
  380.483	 -31.7147
  384.508	 -31.6923
  388.576	 -31.6690
  392.687	 -31.6448
  396.842	 -31.6197
  401.040	 -31.5936
  405.283	 -31.5665
  409.571	 -31.5384
  413.904	 -31.5093
  418.283	 -31.4794
  422.708	 -31.4487
  427.181	 -31.4174
  431.700	 -31.3856
  436.267	 -31.3533
  440.883	 -31.3205
  445.547	 -31.2875
  450.261	 -31.2541
  455.025	 -31.2199
  459.839	 -31.1839
  464.704	 -31.1448
  469.620	 -31.1010
  474.589	 -31.0510
  479.610	 -30.9968
  484.684	 -30.9402
  489.811	 -30.8836
  494.994	 -30.8284
  500.230	 -30.7747
  505.523	 -30.7227
  510.871	 -30.6730
  516.276	 -30.6267
  521.738	 -30.5856
  527.258	 -30.5513
  532.836	 -30.5248
  538.473	 -30.5049
  544.170	 -30.4889
  549.927	 -30.4749
  555.745	 -30.4632
  561.625	 -30.4548
  567.567	 -30.4501
  573.572	 -30.4490
  579.640	 -30.4508
  585.772	 -30.4542
  591.969	 -30.4581
  598.232	 -30.4612
  604.561	 -30.4634
  610.958	 -30.4647
  617.421	 -30.4653
  623.953	 -30.4651
  630.555	 -30.4646
  637.226	 -30.4665
  643.967	 -30.4765
  650.780	 -30.4990
  657.666	 -30.5364
  664.623	 -30.5851
  671.655	 -30.6379
  678.761	 -30.6876
  685.942	 -30.7287
  693.199	 -30.7604
  700.533	 -30.7862
  707.944	 -30.8103
  715.434	 -30.8327
  723.003	 -30.8474
  730.652	 -30.8473
  738.383	 -30.8298
  746.194	 -30.8017
  754.089	 -30.7724
  762.067	 -30.7507
  770.129	 -30.7384
  778.277	 -30.7308
  786.511	 -30.7173
  794.832	 -30.6892
  803.241	 -30.6422
  811.739	 -30.5790
  820.327	 -30.5052
  829.006	 -30.4260
  837.777	 -30.3413
  846.640	 -30.2514
  855.597	 -30.1561
  864.649	 -30.0563
  873.797	 -29.9539
  883.042	 -29.8517
  892.384	 -29.7519
  901.825	 -29.6536
  911.366	 -29.5575
  921.008	 -29.4597
  930.752	 -29.3600
  940.599	 -29.2548
  950.551	 -29.1440
  960.607	 -29.0292
  970.770	 -28.9110
  981.041	 -28.7927
  991.420	 -28.6738
 1001.909	 -28.5554
 1012.509	 -28.4371
 1023.221	 -28.3193
 1034.046	 -28.2021
 1044.986	 -28.0847
 1056.042	 -27.9692
 1067.214	 -27.8564
 1078.505	 -27.7460
 1089.915	 -27.6394
 1101.446	 -27.5342
 1113.099	 -27.4283
 1124.875	 -27.3197
 1136.776	 -27.2113
 1148.803	 -27.1000
 1160.957	 -26.9901
 1173.240	 -26.8801
 1185.652	 -26.7750
 1198.196	 -26.6676
 1210.873	 -26.5561
 1223.683	 -26.4454
 1236.630	 -26.3362
 1249.713	 -26.2313
 1262.934	 -26.1339
 1276.296	 -26.0480
 1289.799	 -25.9700
 1303.444	 -25.9014
 1317.234	 -25.8422
 1331.170	 -25.7914
 1345.254	 -25.7593
 1359.486	 -25.7486
 1373.869	 -25.7616
 1388.404	 -25.7926
 1403.093	 -25.8322
 1417.938	 -25.8852
 1432.939	 -25.9451
 1448.099	 -26.0118
 1463.420	 -26.0840
 1478.902	 -26.1668
 1494.548	 -26.2507
 1510.360	 -26.3349
 1526.339	 -26.4234
 1542.488	 -26.5138
 1558.807	 -26.6183
 1575.299	 -26.7411
 1591.965	 -26.8803
 1608.807	 -27.0338
 1625.828	 -27.1919
 1643.029	 -27.3564
 1660.412	 -27.5206
 1677.978	 -27.6805
 1695.731	 -27.8361
 1713.671	 -27.9812
 1731.801	 -28.1081
 1750.123	 -28.2222
 1768.639	 -28.3381
 1787.351	 -28.4501
 1806.260	 -28.5751
 1825.370	 -28.7185
 1844.682	 -28.8876
 1864.198	 -29.0839
 1883.921	 -29.2995
 1903.852	 -29.5248
 1923.995	 -29.7562
 1944.350	 -29.9776
 1964.920	 -30.1903
 1985.709	 -30.3895
 2006.717	 -30.5666
 2027.948	 -30.7257
 2049.403	 -30.8693
 2071.085	 -30.9799
 2092.996	 -31.0776
 2115.139	 -31.1625
 2137.517	 -31.2397
 2160.131	 -31.3062
 2182.985	 -31.3630
 2206.080	 -31.4072
 2229.420	 -31.4403
 2253.007	 -31.4660
 2276.843	 -31.4864
 2300.931	 -31.5082
 2325.274	 -31.5335
 2349.875	 -31.5564
 2374.736	 -31.5803
 2399.860	 -31.6106
 2425.250	 -31.6660
 2450.908	 -31.7546
 2476.838	 -31.8708
 2503.042	 -32.0070
 2529.524	 -32.1476
 2556.286	 -32.2878
 2583.330	 -32.4113
 2610.661	 -32.5031
 2638.281	 -32.5464
 2666.194	 -32.5395
 2694.401	 -32.4605
 2722.907	 -32.2831
 2751.715	 -31.9810
 2780.827	 -31.5533
 2810.247	 -31.0277
 2839.979	 -30.4617
 2870.025	 -29.8772
 2900.389	 -29.2981
 2931.074	 -28.7342
 2962.084	 -28.2019
 2993.422	 -27.7116
 3025.092	 -27.2747
 3057.097	 -26.9036
 3089.440	 -26.6000
 3122.125	 -26.3569
 3155.156	 -26.1525
 3188.537	 -25.9787
 3222.271	 -25.8282
 3256.362	 -25.7091
 3290.813	 -25.6288
 3325.629	 -25.5804
 3360.813	 -25.5531
 3396.369	 -25.5261
 3432.302	 -25.4891
 3468.615	 -25.4361
 3505.312	 -25.3671
 3542.397	 -25.2832
 3579.875	 -25.1685
 3617.749	 -24.9997
 3656.023	 -24.7531
 3694.703	 -24.4116
 3733.792	 -23.9771
 3773.294	 -23.4578
 3813.215	 -22.8768
 3853.557	 -22.2465
 3894.327	 -21.6015
 3935.528	 -20.9579
 3977.165	 -20.3369
 4019.242	 -19.7453
 4061.764	 -19.1904
 4104.737	 -18.6606
 4148.164	 -18.1524
 4192.050	 -17.6583
 4236.400	 -17.1820
 4281.221	 -16.7281
 4326.515	 -16.3002
 4372.288	 -15.8967
 4418.545	 -15.5168
 4465.292	 -15.1564
 4512.534	 -14.8156
 4560.275	 -14.4946
 4608.521	 -14.1968
 4657.278	 -13.9246
 4706.551	 -13.6879
 4756.345	 -13.4916
 4806.666	 -13.3492
 4857.519	 -13.2662
 4908.910	 -13.2460
 4960.845	 -13.2876
 5013.330	 -13.3891
 5066.369	 -13.5518
 5119.970	 -13.7831
 5174.138	 -14.0911
 5228.878	 -14.4851
 5284.198	 -14.9672
 5340.104	 -15.5333
 5396.601	 -16.1655
 5453.695	 -16.8502
 5511.394	 -17.5685
 5569.703	 -18.3232
 5628.628	 -19.1089
 5688.178	 -19.9058
 5748.357	 -20.6677
 5809.173	 -21.3342
 5870.632	 -21.8483
 5932.742	 -22.2079
 5995.509	 -22.4330
 6058.939	 -22.5744
 6123.041	 -22.6667
 6187.821	 -22.7438
 6253.287	 -22.8255
 6319.445	 -22.9426
 6386.303	 -23.1184
 6453.868	 -23.3745
 6522.148	 -23.7210
 6591.150	 -24.1562
 6660.883	 -24.6657
 6731.353	 -25.2302
 6802.569	 -25.8279
 6874.538	 -26.4393
 6947.269	 -27.0439
 7020.769	 -27.6128
 7095.046	 -28.1127
 7170.110	 -28.5182
 7245.968	 -28.8178
 7322.628	 -29.0213
 7400.100	 -29.1465
 7478.390	 -29.2060
 7557.510	 -29.2116
 7637.466	 -29.1678
 7718.268	 -29.0882
 7799.925	 -28.9869
 7882.446	 -28.8774
 7965.840	 -28.7684
 8050.116	 -28.6668
 8135.284	 -28.5770
 8221.354	 -28.5065
 8308.333	 -28.4645
 8396.232	 -28.4623
 8485.063	 -28.5080
 8574.832	 -28.6096
 8665.551	 -28.7698
 8757.230	 -28.9932
 8849.879	 -29.2852
 8943.509	 -29.6574
 9038.128	 -30.1210
 9133.749	 -30.6846
 9230.382	 -31.3400
 9328.036	 -32.0686
 9426.725	 -32.8326
 9526.456	 -33.5812
 9627.243	 -34.2836
 9729.097	 -34.9435
 9832.028	 -35.5704
 9936.048	 -36.1789
10041.169	 -36.7776
10147.401	 -37.3835
10254.758	 -38.0140
10363.250	 -38.6863
10472.891	 -39.3828
10583.690	 -40.1043
10695.663	 -40.8187
10808.820	 -41.5120
10923.175	 -42.1429
11038.738	 -42.6286
11155.525	 -42.8785
11273.547	 -42.8139
11392.818	 -42.4008
11513.351	 -41.7064
11635.159	 -40.8931
11758.256	 -40.1169
11882.654	 -39.4156
12008.370	 -38.7711
12135.415	 -38.1632
12263.804	 -37.5806
12393.552	 -37.0361
12524.672	 -36.5574
12657.179	 -36.1625
12791.089	 -35.8506
12926.415	 -35.6152
13063.172	 -35.4410
13201.377	 -35.3094
13341.044	 -35.2166
13482.188	 -35.1791
13624.826	 -35.2336
13768.973	 -35.3988
13914.645	 -35.6685
14061.857	 -36.0311
14210.628	 -36.4720
14360.973	 -36.9751
14512.907	 -37.5443
14666.449	 -38.1832
14821.616	 -38.8703
14978.425	 -39.5671
15136.893	 -40.1739
15297.036	 -40.5882
15458.875	 -40.7657
15622.425	 -40.7098
15787.706	 -40.4957
15954.735	 -40.1701
16123.532	 -39.7462
16294.114	 -39.2984
16466.502	 -38.8836
16640.713	 -38.5496
16816.766	 -38.3314
16994.682	 -38.2440
17174.482	 -38.2848
17356.182	 -38.4441
17539.807	 -38.7130
17725.373	 -39.1125
17912.902	 -39.6640
18102.414	 -40.3436
18293.934	 -41.1301
18487.479	 -42.0632
18683.070	 -43.1718
18880.732	 -44.5353
19080.484	 -46.0992
19282.350	 -47.6695
19486.352	 -49.0674
19692.512	 -50.1667
19900.854	 -51.1814
20111.398	 -52.1749
20324.172	 -52.9518
20539.195	 -60.6789
20756.494	 -61.5023
20976.092	 -62.3854
21198.014	 -63.1761
21422.281	 -63.8413
